ch1,ch2,ch3,ch4,label,trial,timestamp
6.489434336781674,-0.030032970202452405,0.13725625765327634,-0.21455314779565846,0,0,1762277789.140152
14.972896374970704,4.328600795398994,8.416398817624176,-1.4558222763475412,0,0,1762277789.140152
-13.410145058348975,1.918035353785338,1.8681673848078135,-0.9782363300374873,0,0,1762277789.140152
42.292562558641954,2.4218268513632,1.88862840885429,-0.03907425629756925,0,0,1762277789.140152
0.6393020220540201,-0.29087029105281337,-3.722913211402837,1.14910781488943,0,0,1762277789.140152
-59.041753425233225,-2.771779401236751,-1.8205313017281457,2.2607313607150834,0,0,1762277789.140152
-7.041922996742955,-1.1370187395782574,-1.942908172272334,-0.8746768793488456,0,0,1762277789.140152
-9.171493606992547,0.1676163705551825,-1.0189661319883443,-1.233073924250948,0,0,1762277789.140152
79.49836365527844,-1.2826707902491954,3.1664156172568103,-1.989450514984182,0,0,1762277789.140152
65.63497769961461,-0.7266673861844208,1.3934685057219034,0.6287531775306519,0,0,1762277789.140152
-105.35039517533744,0.7308675853425167,-1.3835338343971826,1.7706463299688893,0,0,1762277789.140152
-61.11030763147015,1.2424949521107107,1.6627924519160986,-0.9582280606546264,0,0,1762277789.140152
-1.1549770579827106,2.2354238321922084,-0.2321818080635103,2.1672551444592547,0,0,1762277789.140152
37.04655200889923,1.0846982946869108,1.7091767213615545,-0.9987549724397969,0,0,1762277789.140152
132.1635863923189,-1.721520949685653,-3.8953421221280284,-0.39588339640824677,0,0,1762277789.140152
-54.9300900138116,-1.5291371959469682,-4.805234075320788,-0.2396060162650656,0,0,1762277789.140152
-76.62410476894674,-1.6264746811529454,5.633153776861716,0.3205352777390565,0,0,1762277789.140152
-14.225740750395133,0.8502479679371038,1.6244335716201566,-0.9355091600744084,0,0,1762277789.140152
25.892162724808212,0.9628390327830845,-2.316446374675799,-0.9620946222874762,0,0,1762277789.140152
-4.5770292087884465,0.5055036382503064,2.837709680131186,-0.3485006919114222,0,0,1762277789.140152
49.49457460484669,-0.5546050877596281,-0.06550867628526652,2.710910136461936,0,0,1762277789.140152
23.794916378911147,0.536482171826864,-1.604042115821065,1.6237773028586606,0,0,1762277789.140152
-77.54599087466576,1.8127012406890903,0.595356236889792,-2.172117891923419,0,0,1762277789.140152
16.22136390442092,-1.3953558756017832,-2.0976506557630876,0.548912009052208,0,0,1762277789.140152
-4.291297718039533,-1.7871100782115852,-2.073790462137003,-1.4039588640086058,0,0,1762277789.140152
22.312944225260555,-3.567556437014417,-1.3923351646854418,0.7069805120628827,0,0,1762277789.140152
-9.79848353986631,3.918718492297563,6.5098274467021335,-1.8113999631821984,0,0,1762277789.140152
17.003888262137654,3.033880068099349,2.970654834618092,2.175828938458148,0,0,1762277789.140152
-35.98700770940718,-1.3759280927412318,0.59449520173592,-0.8197788839998014,0,0,1762277789.140152
13.41889566102343,1.176454783546377,-7.014650126983675,-0.6859951137835347,0,0,1762277789.140152
-5.4797572970088,-2.082189839357404,-6.166068062633954,2.7520867050537063,0,0,1762277789.140152
6.987093008813617,0.4258409927751563,6.734970848808185,-0.9100937092477102,0,0,1762277789.140152
80.70914077739101,-0.8554670473933476,5.105427598573894,-1.029834593661749,0,0,1762277789.140152
-79.29334770656047,-3.618769840300632,-4.031092670782044,-1.2066022829289453,0,0,1762277789.140152
-39.72997262483691,2.712037891595895,0.32278265468504336,1.315132982832144,0,0,1762277789.140152
34.104855833675614,1.8640023777739625,3.8757759090066015,0.2729585279931844,0,0,1762277789.140152
-22.25651286871883,1.8224828983771981,-8.003829233886659,1.7124432735491069,0,0,1762277789.140152
5.267108714788161,-1.7626964545598742,1.181568887657118,-0.5210127146152117,0,0,1762277789.140152
87.68413812004964,-1.6684084198215312,1.7405268614971334,-2.1305117621865977,0,0,1762277789.140152
9.483664979694558,2.4438225358131263,0.41000086021598237,-1.2576474148056493,0,0,1762277789.140152
-104.39670522835502,-1.0795277794630755,0.9649403477207534,-0.19249238036227717,0,0,1762277789.140152
-23.529809995500393,-0.08625758647724252,1.8292748373583407,1.121535983850504,0,0,1762277789.140152
62.72676577021423,-1.410935631070904,3.035168869323687,3.805830342142341,0,0,1762277789.140152
30.55513736377277,-1.652755402152975,-7.514365235754151,0.5957457218591139,0,0,1762277789.140152
-30.78214428149207,1.3364537849715332,-3.8740765593736897,-2.6015532611896353,0,0,1762277789.140152
-58.07869005307257,2.7439432848860563,4.699205290872567,-1.6043963161878814,0,0,1762277789.140152
22.035137857011737,0.29052015907626116,5.062229043912845,-1.9106144470733322,0,0,1762277789.140152
59.26097837450652,1.4623892164133168,-2.4788516414970365,1.271015907664371,0,0,1762277789.140152
37.527742683517396,-0.9758856186533288,-0.07983031904817522,2.560439160353343,0,0,1762277789.140152
-78.33114871886623,-4.419189713888778,-0.9144935717486493,0.6300187315814353,0,0,1762277789.140152
-6.610065986854115,-1.9627099840549749,-3.3065649791113576,-0.7274387402145498,0,0,1762277789.140152
12.924559059836486,3.407291231747074,-0.545680727366743,-0.269341649359027,0,0,1762277789.140152
-19.84024716107693,1.88245209557088,0.8951556358153198,-2.7724124279131273,0,0,1762277789.140152
54.06556937784911,0.25531944736794243,5.224879574396285,0.4527995712646182,0,0,1762277789.140152
-30.110355868319367,0.39621128156080904,3.2527986289410733,1.372812659865659,0,0,1762277789.140152
-15.482471227368054,-3.4751344890579947,-1.9315350562901565,1.724212304488079,0,0,1762277789.140152
27.462494137037737,3.153938279726305,-7.88780408031628,0.3229362915649836,0,0,1762277789.140152
0.6196884080033958,0.9140904344078744,3.851153774401668,-1.5508942840887865,0,0,1762277789.140152
-28.17540706071017,-2.583183061904193,-0.013410735696738113,2.174807404861172,0,0,1762277789.140152
13.720989631272621,-1.8412211579658757,-4.397436301613554,-2.769365480439048,0,0,1762277789.140152
4.303798161603972,-1.0013505629141284,5.81842437681003,-2.009584936049131,0,0,1762277789.140152
-13.743612329979317,2.866521319259184,-2.418089322544451,0.3126340673822888,0,0,1762277789.140152
42.10631076822716,3.091773887311266,1.213969078529156,-0.5494559748029382,0,0,1762277789.140152
2.103150290905715,-0.06943932979067638,1.4056982117021026,2.8335401247252943,0,0,1762277789.140152
-46.361353926866634,-3.0255907468192023,-0.19470862001191375,2.36757709271835,0,0,1762277789.140152
-6.7536711865077175,-1.6574296262788597,-0.5549412931381642,-0.5363080595331793,0,0,1762277789.140152
-5.517227120513017,1.372238377789734,0.24262150191615361,0.5458442640999106,0,0,1762277789.140152
30.101837017150785,1.6101278351970607,-0.040186134894635094,-0.9462188155518024,0,0,1762277789.140152
-3.6336158742732976,-1.8162551448173698,-5.379165317494689,-4.401118987477681,0,0,1762277789.140152
24.44094133159798,1.7497377640707814,4.485332368830715,-0.3421591412195544,0,0,1762277789.140152
-13.891109458179818,-0.8589038178887805,4.004077900848797,2.3961527264817586,0,0,1762277789.140152
-36.55772720793517,-0.6449927567082213,-6.417245598963499,0.7439341728633668,0,0,1762277789.140152
76.50368535949454,0.5276377380857772,-0.5807583023071484,1.4037413797088198,0,0,1762277789.140152
-67.60195437838303,-0.8331102391001811,1.933712748357639,-0.10772938732884908,0,0,1762277789.140152
-20.383327194130107,1.1929329902893675,3.3562864815422864,-2.358447707332705,0,0,1762277789.140152
45.15476876531612,0.12461897145751255,1.7423227844960911,0.8948669420809896,0,0,1762277789.140152
13.650863364225689,1.001911764492418,-3.6600627163193358,1.03870473423286,0,0,1762277789.140152
-21.33637712631457,-1.1772012514865207,-1.5968083965283377,-1.2671425899718427,0,0,1762277789.140152
-4.10262073316239,-0.000811808967511082,-2.738019263156626,0.27167542120567273,0,0,1762277789.140152
10.101537203092407,-2.668590143070162,2.987719436535421,0.4464048242015226,0,0,1762277789.140152
-26.229511860338633,0.21745714657566342,2.7965967966484717,0.063875617744085,0,0,1762277789.140152
7.366670506182929,3.6864044220167593,-0.1072038204002686,0.28483355763792995,0,0,1762277789.140152
20.55187867576065,0.4212028019008712,-1.6495234162280483,-1.040548342062818,0,0,1762277789.140152
41.166957608292805,-1.6722084070671752,0.4902527266125622,-0.780298556206056,0,0,1762277789.140152
-30.32213519573715,0.09984828013532832,-2.0244953790208484,-0.9266256169732984,0,0,1762277789.140152
-51.140015684669905,-1.1691562999723395,1.2185426118191867,1.4784693859746147,0,0,1762277789.140152
-5.9342603324544525,-0.24618946180742726,0.1515061728454513,3.432054128691343,0,0,1762277789.140152
54.67059260156581,1.931348946966094,-2.334490675028095,-1.552388999964665,0,0,1762277789.140152
-16.83982566572996,-1.1503747683978247,3.4393727091746378,-0.6521510451345426,0,0,1762277789.140152
11.440075530188624,1.5021045012063208,1.156354975298008,-1.385987768627452,0,0,1762277789.140152
9.36605341286133,-2.0722556519074704,-2.458963213311457,-0.619524871878159,0,0,1762277789.140152
-25.262669677513824,-0.20698899280042532,-0.8782698369165914,1.9050531177157257,0,0,1762277789.140152
-19.480710523093666,0.9664704119283174,3.9192600302290925,-1.2758572631237408,0,0,1762277789.140152
14.800492785717461,0.2219998684854135,-2.120311830272895,-0.16635895700202719,0,0,1762277789.140152
22.349458557705002,0.7955003979810557,-2.0044909040397862,1.740455950471873,0,0,1762277789.140152
16.94405575052955,-0.8096469111669075,-1.3024495992808751,-0.2188693454880548,0,0,1762277789.140152
24.504969691022755,-0.2634515740577103,0.5176386645697046,-0.6997531969720593,0,0,1762277789.140152
-99.1326932823772,0.21382640578567882,2.863132948107739,0.14958113398829556,0,0,1762277789.140152
-3.2697282941310064,0.14320722364331326,-0.2342766119003143,-0.771009919965722,0,0,1762277789.140152
2.2233156492383204,-0.10138438854673813,-1.2127569999229078,1.6894749987599458,0,0,1762277789.140152
100.65657447728208,1.5548015218799505,4.782506484723052,-0.7037564064877596,0,0,1762277789.140152
-9.342153341285044,-3.5081748398734467,-1.285546757231518,0.10676729008472176,0,0,1762277789.140152
-56.0911248165537,0.48638162877288027,-1.793327822585152,-0.49764789453087976,0,0,1762277789.140152
13.30480949276728,0.8668159684564521,-5.478504465334108,-0.3379307411607057,0,0,1762277789.140152
-28.076159529990683,-0.20106034319505298,2.499792231697018,-0.9902934064409142,0,0,1762277789.140152
41.677303990893904,2.613874838715783,2.9124207994310343,0.20989908221926878,0,0,1762277789.140152
-7.982288775592262,-1.237080552682381,-4.672141963946203,2.338423249121272,0,0,1762277789.140152
3.4245866140859067,0.6854425266535432,3.947217013956875,0.09674813382523027,0,0,1762277789.140152
-31.949639588853078,-1.8518954968005077,1.948253936258345,-0.6449989071496434,0,0,1762277789.140152
17.332643636365116,-0.45035348240467044,1.4628533470454474,-1.6148168097705695,0,0,1762277789.140152
-9.815764607663775,0.9763818967145665,-3.2652449197821882,2.9400777328144954,0,0,1762277789.140152
-3.8862156468068703,0.5790358814566244,0.17604696133897407,-2.1320460650933883,0,0,1762277789.140152
49.86951147135656,-2.053970830687324,-4.6408225731506745,0.8855620805977601,0,0,1762277789.140152
-43.759117614390576,-0.5007548688147033,4.631207223215585,-2.6720585513046333,0,0,1762277789.140152
13.701128251391372,2.8911857699680708,0.9213637724141461,-0.9162284861195797,0,0,1762277789.140152
65.29028785367112,1.1796131465834558,-1.8868574992373133,5.169769988446062,0,0,1762277789.140152
-97.24155036012608,-1.5493568069131627,-0.22539850740472073,-1.4222683475114897,0,0,1762277789.140152
8.039203363626525,-1.863145627975217,-0.3619916524483107,-0.030269085272345817,0,0,1762277789.140152
32.98097280532823,1.2436102030386926,1.8615960394169393,-0.5864287917150208,0,0,1762277789.140152
-35.99819748569396,0.13396303088292105,-1.971102057141234,-1.3875893332959692,0,0,1762277789.140152
6.353392480187962,-0.010764491026206474,3.6774825848242076,0.42418272083937,0,0,1762277789.140152
36.42634785684606,-0.2774367419008389,-1.3101176308462144,1.0880058002977258,0,0,1762277789.140152
-51.75964295316479,1.9265936386546496,-1.4270919619019344,0.5087857870805117,0,0,1762277789.140152
24.58005014073438,-2.379353773555829,-1.862917997513703,1.5215196715647983,0,0,1762277789.140152
128.20217900509417,-1.2310373930974534,1.8069716955937156,-2.621730080881793,0,0,1762277789.140152
-118.09333716093788,1.0949084696891405,-2.188858712926654,-1.456372516904033,0,0,1762277789.140152
-50.08547889654382,0.7057526993095155,1.2881656877039378,0.5200029295439722,0,0,1762277789.140152
-5.265410502458733,0.7108660668379904,4.458009935741805,0.5718718640020106,0,0,1762277789.140152
66.8456469596457,0.3472027373504604,0.06573794699736117,0.01948926307236063,0,0,1762277789.140152
31.185171799726863,0.5787091616890823,-1.5223523627797624,2.143811980056946,0,0,1762277789.140152
-39.358150536248026,-0.885118901417039,-3.3316464299586235,0.31874046512323745,0,0,1762277789.140152
-37.68155140995646,-2.487998220593497,-3.1989307807263825,-1.0346037723772037,0,0,1762277789.140152
-15.916609972062094,-0.34682299157940494,1.358689024719378,-1.3850072690361936,0,0,1762277789.140152
73.41914936855709,3.8053502321162886,6.5518145528629805,-1.8996334492773357,0,0,1762277789.140152
45.995524227480686,-0.5126383774230842,-0.9612165498812941,3.0079804776435646,0,0,1762277789.140152
-78.1039567594394,-2.30034759660236,-0.12202519142153792,0.13291394519496413,0,0,1762277789.140152
-41.415964046770405,0.9650481255326011,-2.6587990990896917,-0.7601141696401976,0,0,1762277789.140152
121.58955544609059,0.16108552147792696,-2.2683075741099317,-0.7227864959634136,0,0,1762277789.140152
-74.56696540435036,-0.3272040490442473,2.752436277548409,1.609937050235031,0,0,1762277789.140152
-31.002490002526272,0.5358083110889381,-1.335915133758158,-0.16023078170602212,0,0,1762277789.140152
-33.301032856875544,-0.3019870719303834,1.7207034171749922,-1.3347152918054972,0,0,1762277789.140152
-15.226993706298185,2.1896955649164314,-0.21045469129083777,1.2057732412106585,0,0,1762277789.140152
190.2877173199243,-2.421787170047747,3.6362059833246394,0.5922549426245066,0,0,1762277789.140152
22.027340612560884,-0.4204881226883723,-2.6877402900240037,-1.4860830525588196,0,0,1762277789.140152
-149.8672405712836,0.7478443692859739,-6.778393940086755,-0.2168581759160119,0,0,1762277789.140152
-39.574671703320135,0.3144606917527348,5.545266232764943,-0.7973795225649369,0,0,1762277789.140152
-5.367200850927604,-1.4063129387478428,4.074685449327367,0.5018220664205613,0,0,1762277789.140152
15.635865059611499,-0.037008718333808525,-1.6106178957030601,1.046216854570092,0,0,1762277789.140152
111.01806661477836,1.5699805509013183,-5.48109170984742,1.555650731384172,0,0,1762277789.140152
8.084421868501824,-0.009251987280950672,1.0207922206134776,0.2711558741346087,0,0,1762277789.140152
-54.76834612182948,2.1344521697088124,0.9136098176311634,-1.7520324868794952,0,0,1762277789.140152
-70.78179223660766,-2.0303438622832988,1.031836031546727,-0.5909794255439974,0,0,1762277789.140152
-11.920982595647375,-0.3696002288528989,2.366400581380045,-2.113228439748511,0,0,1762277789.140152
91.877913793819,-2.207466063514009,1.28565106280567,2.143738447788164,0,0,1762277789.140152
45.44463606510721,-0.8857246381126155,-3.737180561808391,-0.09214048224682721,0,0,1762277789.140152
-59.60448709326092,4.32409692700082,-1.059470389564017,2.5827292930067003,0,0,1762277789.140152
-41.89448728524994,0.45513035344494907,-0.5769453868133753,-2.292454623265545,0,0,1762277789.140152
7.084500754315753,-2.1065745080807945,-0.834178989748284,0.9736014313196061,0,0,1762277789.140152
20.577970100324812,-0.25416541705504203,5.226951896501076,-0.8738600890955891,0,0,1762277789.140152
-9.76364343034362,1.7421203112195773,-0.7993033909926026,-2.395455974935533,0,0,1762277789.140152
18.218995646839566,0.1744084015912274,-0.30225449165973295,3.4459618025913645,0,0,1762277789.140152
37.67188567803575,-3.6245392782303876,-2.7630764675153947,-1.6742881960428517,0,0,1762277789.140152
-2.936687828656793,1.4775888126281167,1.0997280153198246,2.275983186253901,0,0,1762277789.140152
-64.53105967349974,1.1460465123370644,0.595609748382747,-1.1700084550512009,0,0,1762277789.140152
-29.73508799302656,-0.5541487275971141,-0.5000537049893626,0.07423774636009846,0,0,1762277789.140152
57.082008451002636,0.034444480303650805,-2.963273218997798,-1.9010177083811757,0,0,1762277789.140152
-33.911371288033656,2.945828834816507,3.0934698636550593,1.2552151844318267,0,0,1762277789.140152
49.9863035406973,-3.2928247916209807,2.936190219588994,-0.929106128864187,0,0,1762277789.140152
27.30301734715701,-0.7567934904858235,-2.4994224073555276,0.9247671382000324,0,0,1762277789.140152
-30.21175492750824,-0.670226397497101,-0.48502648423468747,1.1769753463706234,0,0,1762277789.140152
29.186648770801483,-0.04359689136528367,-1.3497866705391406,-1.4805299029849757,0,0,1762277789.140152
-78.0066897992572,7.684134771456315,5.784992794007311,3.1859966853366357,0,0,1762277789.140152
-38.92380121816643,-6.0265614540864645,-5.846287322252792,-3.398213038780908,0,0,1762277789.140152
52.14475932084634,-0.714854087861961,-0.8861460759652898,-0.25158629361358564,0,0,1762277789.140152
11.528296395359634,0.7456372228123481,2.4169050228363833,1.038686187374693,0,0,1762277789.140152
69.63403512445781,-0.15522627112566212,-1.2935989889139206,-0.16960351604550278,0,0,1762277789.140152
1.5311572837614282,-0.25658774359532743,2.245488379988142,-1.7485837250129523,0,0,1762277789.140152
-91.79832401552919,0.29272321559546555,0.5396080785761148,1.1445795637812959,0,0,1762277789.140152
-10.984929373546581,1.0768428332799465,-1.9377105948408513,1.066973071602442,0,0,1762277789.140152
45.21309405860006,-1.0452234891546337,0.3640281481684915,1.8993767514002318,0,0,1762277789.140152
5.896247370408068,0.6334282157914681,-1.9410423761700875,-0.882806020812276,0,0,1762277789.140152
-28.313545256523867,1.1223676253613875,2.469956916881514,-3.1773473966250285,0,0,1762277789.140152
-16.19953856299136,-0.15692546219274903,2.7042643069477457,1.795610050169395,0,0,1762277789.140152
19.477511638104637,-3.1143515398446966,-3.8665387126820145,-0.24110639938880782,0,0,1762277789.140152
95.01027418403751,0.7780662489912646,2.6411145184736036,-0.30350884566991215,0,0,1762277789.140152
-32.48601058978408,0.022861276734384976,-5.974013205677732,-0.652466645327796,0,0,1762277789.140152
-84.15130638153815,3.3204333460431426,5.317776248240072,2.9008446822484673,0,0,1762277789.140152
3.4476720869066257,-0.15863473688381438,-0.46309496042251547,-1.0628142667529996,0,0,1762277789.140152
0.08989090919058469,-4.82752077917583,-3.2985680216662527,-1.973616085515791,0,0,1762277789.140152
15.895570151511809,2.201493892136269,1.3008433014234273,0.5524392967377411,0,0,1762277789.140152
44.44643039847965,2.0527031183820084,0.18572080811454686,0.44582931462922304,0,0,1762277789.140152
-3.453498536499646,-2.8913222429461274,4.446139386249872,1.786344466768961,0,0,1762277789.140152
-26.921217593105474,0.514142582375441,-0.5407826231208688,-1.2708716887166749,0,0,1762277789.140152
8.454170733134195,1.84361709419623,-2.5928486542467155,0.2840821438955042,0,0,1762277789.140152
-40.70692899374095,-0.26752648918336275,-2.712853519249395,-0.8113226181385923,0,0,1762277789.140152
26.750786339204762,0.565397446182766,4.0097429276074426,-0.9664785097426136,0,0,1762277789.140152
118.28367449302341,-0.6607009888932563,-3.5391506091215335,1.4244276660260344,0,0,1762277789.140152
-111.12323414409897,-1.5299032421419327,-2.543710810532476,0.40511136743423903,0,0,1762277789.140152
-94.09046507374286,-1.3971885110795481,4.761895040633135,-1.7673281374443377,0,0,1762277789.140152
24.53394116776942,1.9254622825724643,3.3324771251586123,2.476326573783517,0,0,1762277789.140152
35.414002458196954,0.3342449495910034,-1.9302880931076403,-0.20109442708895708,0,0,1762277789.140152
154.57368459533964,1.170166694691837,-1.3260361265847789,-0.8767816514222105,0,0,1762277789.140152
-35.68169406834249,0.14247538417337938,-1.7629384435419648,-0.7784694789853018,0,0,1762277789.140152
-106.63760775978686,-1.0080972889525082,1.5057648818499298,-3.230094251799031,0,0,1762277789.140152
-10.71160254383842,1.4401102104646215,-2.2223808955017264,4.318360226643749,0,0,1762277789.140152
-19.005819569019078,-3.4086942461963963,3.1751619239198208,0.5139964811925962,0,0,1762277789.140152
34.04687324811537,-0.1671390448964288,0.710950483578985,1.1817438318247002,0,0,1762277789.140152
38.839186188958045,0.7940684692179445,-2.667405439196765,-0.596870197748587,0,0,1762277789.140152
2.8703036365794383,2.4742745981360943,1.5907138903992968,-2.469419124877779,0,0,1762277789.140152
-24.641523117532493,-1.2961080912559566,-5.246561606275195,0.7625829823251195,0,0,1762277789.140152
18.680029375332175,0.9758498150588465,6.366222812391261,-1.6308142263451266,0,0,1762277789.140152
-17.68664038084555,-1.0311083466709214,0.2735536172001655,0.666821305865685,0,0,1762277789.140152
-21.34859699642384,-1.9367414715395281,-2.9954304272297008,-0.2690662735526981,0,0,1762277789.140152
-11.954155462155615,3.782976688276634,0.5189058905302296,1.4633869595304916,0,0,1762277789.140152
14.824739768826653,-2.033726489098027,1.435138612005913,4.071991169598798,0,0,1762277789.140152
110.12581360149579,1.5109976424136158,2.5784233274191783,-3.167747457901754,0,0,1762277789.140152
-78.49500409655818,-2.768881946485841,-3.6093192232790523,-1.5591076587095092,0,0,1762277789.140152
-39.03159732666959,0.7882294596970992,-5.05512320235153,-1.1663483611885725,0,0,1762277789.140152
1.047824793714124,1.1969514645582178,0.7797874476942105,-0.915326223929709,0,0,1762277789.140152
-14.842477005220514,-0.9667133649554323,6.553845545634524,3.613751618611137,0,0,1762277789.140152
46.65719926054326,-0.7563579017501499,1.3526973209867637,-2.0370059644890426,0,0,1762277789.140152
14.967891035545266,0.2979275057055703,-1.9821570877559702,1.761971879840617,0,0,1762277789.140152
23.895141611597552,2.0047190601850295,-2.5006561845028257,2.335267626989715,0,0,1762277789.140152
-60.135589309956664,0.7679545955196216,-1.9370400730047894,-3.3497655947527205,0,0,1762277789.140152
-4.176719231301978,-0.6345544235175812,3.1181248378682866,0.5595721403325016,0,0,1762277789.140152
0.715628462920666,-2.133800929396559,0.10539768658336209,0.26497952595914526,0,0,1762277789.140152
22.771807096024084,0.2756364367711299,0.0715900939474228,-3.223497498319363,0,0,1762277789.140152
19.58690072657797,-0.888150416667817,-0.22538831899930023,1.0068225103721957,0,0,1762277789.140152
-24.226927631782864,2.5557207438912712,1.7148021746818942,1.8230332582052104,0,0,1762277789.140152
-14.41023379124959,-3.3849879631335686,-3.3385930849569654,0.941380755547362,0,0,1762277789.140152
-9.355396832614607,1.016623898201731,0.22575274717765706,-0.5582755529314081,0,0,1762277789.140152
32.60208649178174,3.8553083358043625,0.3817680884565703,1.9254247406029714,0,0,1762277789.140152
13.563296657710621,0.04809030706111328,-2.6068476225487274,-2.634817385209479,0,0,1762277789.140152
-16.502976759220875,-2.835661374347358,5.239378710641895,-1.05466303844933,0,0,1762277789.140152
-15.3675956875691,-1.039799276775939,-0.3382034124522253,0.6222040191075313,0,0,1762277789.140152
12.134630207753903,1.2578845800296365,1.5919600807197247,-2.401982087097491,0,0,1762277789.140152
-5.996260976114543,-2.1412831342254957,-2.738576234638713,5.060790945113139,0,0,1762277789.140152
0.24848929907104567,1.9435452535753979,-1.8502074647375535,0.08797888495925325,0,0,1762277789.140152
-2.599263497531816,1.084239516132516,-1.2923501821021133,-2.6269019146400034,0,0,1762277789.140152
0.07894676085763401,0.9867742986486673,0.9644669487123229,-0.07293262438227772,0,0,1762277789.140152
1.950595050124175,-2.3061091787508987,5.485480872620315,0.4430872500903295,0,0,1762277789.140152
3.9752204468354977,-0.4056629410253246,-2.343466232351018,-0.2389480421699402,0,0,1762277789.140152
8.038364427288506,0.7515290984360672,-6.213851005561334,2.1322081109940023,0,0,1762277789.140152
25.273765925863522,1.2552405182715674,5.260962165376977,-3.4726577383441914,0,0,1762277789.140152
-51.701724487294406,-2.4837904616592117,-0.8478425960366064,0.7501103811834138,0,0,1762277789.140152
-8.492023518653458,0.7883908679946687,3.06445846874469,0.7476830685336012,0,0,1762277789.140152
37.76810815010452,1.9945521441701617,0.28899061602410747,1.2552501592610272,0,0,1762277789.140152
-16.117503127382697,-2.2116564332950923,-2.890804472062645,0.9303918113432703,0,0,1762277789.140152
13.848513321339556,0.6878518209895776,-0.6786688609950723,-4.205267452216633,0,0,1762277789.140152
-32.90802103151483,-1.0339474350479445,-4.36710655536097,3.719022843807695,0,0,1762277789.140152
42.5016738964846,2.32918183972992,6.158369860237101,-2.5146539896485574,0,0,1762277789.140152
1.418781950115546,-1.7145605377457764,-3.1353807481540708,1.1678060819708804,0,0,1762277789.140152
-19.17706869462289,0.09477621892422396,1.3985968185266748,2.0764798174936416,0,0,1762277789.140152
-12.556983313425292,2.226856741902253,2.3362074324597613,-3.1554839658908627,0,0,1762277789.140152
4.638253440198423,-1.2470955732843596,2.469276814664952,-1.8670184358917552,0,0,1762277789.140152
4.2501676689986105,-1.3484119261565586,-0.9785747058620005,0.46262440008028577,0,0,1762277789.140152
-22.976436757448745,-1.4335341048001695,-3.9401651344749107,3.3730605201410535,0,0,1762277789.140152
29.1724571661218,1.7545202580468078,-6.656155865031882,2.108157969039445,0,0,1762277789.140152
-24.699099808635687,1.7787263899892212,5.281946087926949,-1.6704104932864157,0,0,1762277789.140152
74.8999886955571,-0.49038590700981,3.4939136673724325,-0.7259435140148542,0,0,1762277789.140152
6.356326754819731,-0.5357800942410172,1.3263388245776564,-1.0016492140124207,0,0,1762277789.140152
-85.55591778834204,-1.3464190982233954,1.8480445709650983,-1.6067797548576523,0,0,1762277789.140152
-2.363476125261756,0.28948614508183246,-5.673201504162555,0.07745913731203957,0,0,1762277789.140152
0.9162385522323174,0.7157933195816015,-1.1569026981512736,1.1661592081206156,0,0,1762277789.140152
9.087698335835094,0.7839667151991173,-2.385108919671664,1.615374558053558,0,0,1762277789.140152
0.07050501981918335,-1.4702835685968787,3.293600743194777,-1.499920654234554,0,0,1762277789.140152
22.065495755584664,1.4458290143904298,2.4690735074233476,0.9871935728521868,0,0,1762277789.140152
17.09377097764916,0.6237683405342939,2.043793099875543,2.047433509513008,0,0,1762277789.140152
35.93900476737843,-2.3492178246941124,0.8929707378303678,-1.5988511980133273,0,0,1762277789.140152
-51.66045096899786,1.6184099218850216,-0.6345070016094565,-2.4112876303960564,0,0,1762277789.140152
0.3159785837932701,-1.4266996150989826,-9.144188368236726,-0.29333873146724343,0,0,1762277789.140152
-30.211967689591184,-0.8996881713735273,2.7100884136794785,0.2906113154233578,0,0,1762277789.140152
-28.1460224722402,0.8911122334117388,1.041751464309123,2.3551027763899266,0,0,1762277789.140152
38.142326650435635,2.455397866869746,3.1703779205437534,0.2812299972073691,0,0,1762277789.140152
4.476850153969316,-1.891934802195154,1.6406321535606376,-0.6139710842905861,0,0,1762277789.140152
83.46490303679064,1.4036756886977342,-2.992364729515754,0.966552019297406,0,0,1762277789.140152
-80.50977626018944,-1.0000283335933702,-0.5760943520570844,-3.3896300069260477,0,0,1762277789.140152
-13.081075548622186,-1.3140684381499597,-1.0462790043347079,0.631281225345895,0,0,1762277789.140152
13.313969039013774,3.911278842425664,2.2673464345146797,3.443302523626776,0,0,1762277789.140152
41.40973679771741,-3.175693606987714,0.6575447363380268,-3.597828151750597,0,0,1762277789.140152
-24.516492429680827,-2.234650924918858,0.8280630042757808,1.1235872990189288,0,0,1762277789.140152
-34.824145974468486,1.2471330860556311,-3.4120310759742902,0.8303485056997756,0,0,1762277789.140152
-9.4573949118498,1.8163791066092478,3.3426589051292908,-0.04096240536767236,0,0,1762277789.140152
34.33481771796385,1.1306073670974672,-3.5030729658428394,-0.11380859023192624,0,0,1762277789.140152
9.194864095015053,-1.0872739400428881,0.07288221085407719,-1.8569453319388995,0,0,1762277789.140152
-10.082675471396009,-1.1378681892315592,0.9637855989555061,1.6305299516861036,0,0,1762277789.140152
12.29324524607284,0.7574921000566802,0.5424816150475562,-0.7491074246772184,0,0,1762277789.140152
-29.471080378356614,1.3579738535528652,0.3753735022098759,1.5373695695473915,0,0,1762277789.140152
107.98472918397405,-2.004895031072568,-1.3469495137907133,-0.7364056162314639,0,0,1762277789.140152
-124.5040310226883,-1.8390984096360883,-0.9599310290292341,-0.1111749049015134,0,0,1762277789.140152
-5.405193065611129,4.020772737487934,3.8716508213203187,1.600603515233455,0,0,1762277789.140152
2.9811256755745403,-1.2992260280247039,2.4927945100047917,-3.312774983228025,0,0,1762277789.140152
32.58253573235346,0.2494799604050785,-3.556736206550632,0.5217581796833475,0,0,1762277789.140152
63.60954740134187,-0.6926106348471986,-1.010302463710319,1.6564542149564736,0,0,1762277789.140152
-84.92597175254159,-1.2742423026072827,-5.927393383830114,-1.3816543474593133,0,0,1762277789.140152
16.88998069602716,1.5059808258680694,4.872739067814465,1.1849124232342285,0,0,1762277789.140152
63.632043409777694,-0.16984297319108557,3.1310793766813405,-0.17465972545530042,0,0,1762277789.140152
-48.652224817472145,-0.026620479809067454,0.4281666159182574,0.5750598399953415,0,0,1762277789.140152
-42.05147346716146,0.3588238980656675,-1.3577146000948472,-1.5547820403251014,0,0,1762277789.140152
8.509424586392347,1.3372050959387602,-6.71273755441817,1.7238399026080686,0,0,1762277789.140152
9.670964542131554,-2.9069755226994025,8.639432178534165,-0.20081575629004592,0,0,1762277789.140152
26.516683634853973,1.0718182707754957,1.8836262029124338,-2.481188149098122,0,0,1762277789.140152
-11.113711095934379,0.22789830091343027,-6.896824567975341,1.0588120029279817,0,0,1762277789.140152
52.80073979960811,-0.2551915970949183,-0.6091852582551464,0.7612610181102439,0,0,1762277789.140152
-46.47202824297479,0.6018898867072939,-0.48321088304988546,1.7296113685619692,0,0,1762277789.140152
2.1479956260060042,0.45210135406403895,1.8699334116788187,-2.49277033400736,0,0,1762277789.140152
-10.430695548189734,-0.7684780587495191,5.010579231951277,0.7099008152257859,0,0,1762277789.140152
-26.237424506916884,-1.6358902299043094,-0.25328899613690004,-0.102038101359096,0,0,1762277789.140152
16.166682880950656,3.1477835775471004,-2.5947518335986888,-0.21144544197345583,0,0,1762277789.140152
-24.05204360159474,-2.1204274481842877,1.3196012400364225,0.5004101511020068,0,0,1762277789.140152
29.554430002440103,0.21698443699731584,-7.211513685309192,-0.3688225944818414,0,0,1762277789.140152
57.568948371422245,1.1601667130041438,-0.23265923716164064,-0.865382985511754,0,0,1762277789.140152
9.17422828738153,-2.9254615482223785,5.955562818230705,1.6121648304264398,0,0,1762277789.140152
-39.47185551266434,1.5531974018725192,2.1628312559415304,-1.2218624875007702,0,0,1762277789.140152
-61.319930171692654,2.2380239775201023,0.6394447359041072,1.9392980267677566,0,0,1762277789.140152
4.3961651991448045,-0.2139509154358614,-3.922716898354364,1.3434193406580295,0,0,1762277789.140152
44.50742622198106,-1.5050216231181333,-0.9268034064595159,-5.451025047468764,0,0,1762277789.140152
23.07027345434052,1.1382567028276898,0.13558489391253783,2.156741260097385,0,0,1762277789.140152
-85.70346023770594,-1.8109563342779529,-0.6443893575146703,1.1972403133393574,0,0,1762277789.140152
-7.08371555649837,-1.306472291824041,4.711565667358053,-1.5383348778063162,0,0,1762277789.140152
129.0724263933129,2.0551501255540106,-3.1705569324194207,0.23109908588520142,0,0,1762277789.140152
24.8311275919768,-0.6722682002178404,-0.035642930638173365,2.1284923932721767,0,0,1762277789.140152
-63.04380783294386,-0.7217328732984102,1.4760408927804236,-0.510233039690197,0,0,1762277789.140152
-63.178846926781716,2.805445619988583,-2.4877010464880915,-0.7466497086608588,0,0,1762277789.140152
-22.65379385697579,1.24997637173591,1.4974509231356714,-0.13522330530542237,0,0,1762277789.140152
3.437758104436555,-2.7090581034842285,-2.0397480754243253,-0.49541012002702045,0,0,1762277789.140152
109.84958675634286,-0.8373132276802996,3.961996933296685,0.026850521596413136,0,0,1762277789.140152
-62.0820885452567,-0.056605580065856725,-3.770279640310744,-0.6464507879234508,0,0,1762277789.140152
-13.11163207583518,1.0203526308654043,1.7499040578042557,2.011467285721285,0,0,1762277789.140152
51.855468516821354,0.29417526622190915,2.249519254203651,1.3399219081509683,0,0,1762277789.140152
-6.765645829563964,-0.1428153204761218,0.18834375627407118,-3.476642870180565,0,0,1762277789.140152
-1.6123288871860297,-1.1803362763327803,-1.0819868936514199,0.14437692680305866,0,0,1762277789.140152
-57.64870261443516,-0.23888266422602397,-6.9762613285427895,1.3416968434277146,0,0,1762277789.140152
27.680989580446962,2.8286037936355113,1.7735337225592853,-0.6373204732695925,0,0,1762277789.140152
-10.35187385803835,-1.2687051233766864,5.099600231534448,0.3519339413932915,0,0,1762277789.140152
43.916418144730066,-0.4485247733390431,2.01662071981655,0.25264879690353,0,0,1762277789.140152
-71.45797095212309,-0.4911901895421713,-1.800017131559872,1.3071990091237664,0,0,1762277789.140152
5.941807852358247,-1.1998608503372765,-3.388791832837069,-0.9093371240778634,0,0,1762277789.140152
107.02391575229466,3.6038994617939886,2.34226429359987,-2.459492750854993,0,0,1762277789.140152
-24.967468307605877,-1.1230290455125227,0.35090011816903066,0.7473198193695766,0,0,1762277789.140152
-8.991854601881933,-0.8220453898512855,-3.5149082481580947,1.4771968973759249,0,0,1762277789.140152
-100.7607301863042,-0.04067511154725889,4.535597195663289,1.3565572475122218,0,0,1762277789.140152
21.710013379557765,-0.5675492266877177,-0.23052404717195507,-0.1544457498115685,0,0,1762277789.140152
24.35805743101037,0.5145052175514319,-0.7544182455620422,-3.0035990435622653,0,0,1762277789.140152
45.84153222438538,-0.9413466225119486,-4.028176291006915,1.1173372160741677,0,0,1762277789.140152
44.40497231619829,1.5883467517584637,-1.6881158735929278,-1.2287510574561549,0,0,1762277789.140152
-83.59970334376297,0.6283718871662837,4.880179160755313,0.6753250346888837,0,0,1762277789.140152
-21.685235182616342,-1.3146954275787452,5.485287615443715,1.220753571083144,0,0,1762277789.140152
30.026533532548918,0.5171566969834687,-2.247074355867956,0.06295110420224771,0,0,1762277789.140152
-4.971441606933846,0.24464393707972343,-3.011264396964325,1.1556804985194242,0,0,1762277789.140152
10.99653460933173,-0.12748773975992414,-2.81430530345527,-1.752254516444469,0,0,1762277789.140152
71.1912835973423,-1.1272988593874758,1.4253806811765537,2.292772484002041,0,0,1762277789.140152
-96.33991313869274,-0.8915654124533161,-0.8680820896328647,-3.213931469789239,0,0,1762277789.140152
14.562438668325592,0.6816988962966661,1.621538048423886,-0.09921077855177299,0,0,1762277789.140152
-33.044156521824995,0.60994556092928,2.858294230008853,1.7707762573669867,0,0,1762277789.140152
15.374488999972478,3.181773087716978,-5.678607461002089,-3.1281566360603232,0,0,1762277789.140152
78.52353346707622,-1.3734838504226472,5.86333428583962,2.8329863264657025,0,0,1762277789.140152
-45.84398700631645,-2.5405359717691116,-2.695965545484634,0.08366130531465242,0,0,1762277789.140152
30.12341842002981,-0.8102677462188569,-0.281917063606159,1.7914526029700444,0,0,1762277789.140152
-75.95529555210493,1.6872693592834718,4.181121783357756,-0.740571714908894,0,0,1762277789.140152
32.66126541783031,0.5255216579173938,-4.7259591651082316,-2.8678525242370005,0,0,1762277789.140152
35.12034798684716,0.5773682981879676,-3.3550346261752995,-0.5884630529694401,0,0,1762277789.140152
-13.541361440894194,-0.9479928053740365,5.548622598485081,1.703852971835484,0,0,1762277789.140152
-49.925640143663806,-1.531644895441413,0.6478185879843085,2.368268384742049,0,0,1762277789.140152
11.038596590105616,2.5670104204244275,-5.347730171352291,-3.28000063279008,0,0,1762277789.140152
39.97798600582851,-0.9805659361516864,0.5291154961909211,2.3987016599176907,0,0,1762277789.140152
-15.287467026373037,0.2614389497411723,4.218833421633875,-1.088582916870365,0,0,1762277789.140152
34.21991881311886,0.36629368297748216,2.0252029601811152,-0.44449365802422963,0,0,1762277789.140152
-27.09896875720895,-0.6470986562202612,1.722684378256218,0.9897790657702983,0,0,1762277789.140152
-34.156815410280494,-0.004509390037620921,-7.401891813518526,-1.3205012631099433,0,0,1762277789.140152
25.49491980605814,-1.393161662643375,-1.8808636825478415,1.7681334462125777,0,0,1762277789.140152
44.299443187689576,-1.160278521113018,5.801351259128786,-1.9893822325383226,0,0,1762277789.140152
-80.30124315437496,2.8404405716395424,-3.6675167411555214,0.26775695726888465,0,0,1762277789.140152
37.34107063369735,0.890526860847873,0.47015965280382677,0.3624666172268278,0,0,1762277789.140152
-32.103591089770646,0.9490805683614073,2.7875526091245857,0.49779794110499304,0,0,1762277789.140152
37.839012902513545,-0.8727626613738695,-0.9500364773457229,0.14215330208909194,0,0,1762277789.140152
65.19820418534323,-0.8028475541149677,2.2859363412689677,-0.35591162683444294,0,0,1762277789.140152
-89.35328777508778,-1.4444144798834548,-0.9372983535917899,0.7139946895742101,0,0,1762277789.140152
25.17403215195818,-1.7936417427324247,-3.921152139163545,0.444138025855113,0,0,1762277789.140152
-26.071881465257174,3.79358576987108,1.3328285502215056,-0.6723005655513722,0,0,1762277789.140152
-8.75694006014705,-0.9460817060033649,-1.2627713853145266,-0.817209080616058,0,0,1762277789.140152
-5.3550285213814,-1.5776454785506548,4.2247801382561345,-1.4196045748054784,0,0,1762277789.140152
74.10441170305712,1.0083386801966465,-1.2804902881074884,-0.6658056490211963,0,0,1762277789.140152
30.915208238833472,1.2769036625555255,-0.6970040105136716,2.511119067829544,0,0,1762277789.140152
-99.97158210958347,0.21116976396342643,-0.611953800132106,1.9758110626227272,0,0,1762277789.140152
-8.646911986542209,0.3083484240899562,0.8826768620604746,-0.2766475578610427,0,0,1762277789.140152
71.46426502969913,-1.0008435841422214,0.3392160887259916,-1.0981849353574245,0,0,1762277789.140152
-51.14004293933591,-0.22905993617533368,-0.34393557937203834,1.196389289307853,0,0,1762277789.140152
0.45658286529699255,0.0478294639217485,-1.0660918962025023,-4.8588759081327915,0,0,1762277789.140152
14.691664752628844,-1.5213891265259334,-0.31646475182041883,0.036037963483832466,0,0,1762277789.140152
18.417738121669508,-0.9346979168890202,1.7030416749841981,1.7477171587908558,0,0,1762277789.140152
-4.496791243521915,1.5658604009214152,-2.782608256876992,2.8083707139209166,0,0,1762277789.140152
-22.310797179437426,2.0176483633995868,2.131685356207794,2.2802615980652483,0,0,1762277789.140152
4.8489694158651675,0.23923629806410157,-0.05821886853365486,-3.6549137218842938,0,0,1762277789.140152
2.3332587670238905,1.1837578492684233,2.68343381190147,-2.008564360263708,0,0,1762277789.140152
26.26823608767485,-3.8768905353880343,3.224152102626631,0.2523830655773019,0,0,1762277789.140152
-36.98967235306438,0.07398640354144888,-6.85910090886967,3.4902825441783545,0,0,1762277789.140152
45.39376241888609,-0.022441449495985318,-4.9116083364021845,-3.3486939493757837,0,0,1762277789.140152
-78.08125588383137,1.3036485930650696,5.583136923275792,1.8649446029728873,0,0,1762277789.140152
41.407275762875315,1.4307404617716863,-1.37108317045029,0.645020119186661,0,0,1762277789.140152
25.282214400130847,-3.497289726538234,0.4674687782342058,-3.1523377421734167,0,0,1762277789.140152
19.62819084270686,2.9013370329344976,3.01883779242253,2.8323832653008,0,0,1762277789.140152
-58.26186343524391,-1.5948665802486928,1.4020265435482884,-1.1643158265793603,0,0,1762277789.140152
-41.026747900900865,1.2445715626993195,-1.0071124771781503,0.45541828234914805,0,0,1762277789.140152
76.36077552912025,0.7211688842070667,-0.6466358137637922,1.7077877837335569,0,0,1762277789.140152
-7.468882276854367,-2.763879124858393,-2.635772075884295,-3.2294340632330454,0,0,1762277789.140152
49.30774603879735,-0.3283900534168882,-2.8389443677023714,1.796007073989363,0,0,1762277789.140152
-70.28593346797146,1.398510402497171,2.066628518586397,-0.11307332909920761,0,0,1762277789.140152
-3.548497308824952,2.9722574201052754,0.7037963535175072,-1.3256826280282503,0,0,1762277789.140152
0.6956613397725603,-1.7416862618640903,3.4538268207658684,-0.13439062340837915,0,0,1762277789.140152
8.245257853805537,0.25874745030176766,-0.18387980352580513,2.1544544869338806,0,0,1762277789.140152
-42.66798393823497,-3.6158889778297305,-2.8529054044571573,0.9993535554221038,0,0,1762277789.140152
78.60405116413567,0.50359865295399,0.08160792849664116,-2.527433557597695,0,0,1762277789.140152
19.096753010215583,1.9666921486422253,2.480349382627652,1.4709186905483378,0,0,1762277789.140152
-56.79717399594964,0.07300625372015704,2.5408510960179984,-1.1853648862134751,0,0,1762277789.140152
37.88257287744312,2.727036637136433,-4.141057548420765,-0.6649772251766539,0,0,1762277789.140152
-34.582524159726425,-2.466067267038696,-3.5736125800142307,0.43981045517857004,0,0,1762277789.140152
-31.030626729550182,-0.7793418537451279,-1.0209064280283373,-0.7272641652203087,0,0,1762277789.140152
16.398451478567427,-1.9255586909427855,-0.12206058918938854,0.40964073562015757,0,0,1762277789.140152
-13.429348876506685,1.8883632136995128,4.470520838587593,1.4397448236382362,0,0,1762277789.140152
15.20508068046996,1.427630560859302,2.3429565998499546,0.9693786067488621,0,0,1762277789.140152
119.48214407845862,0.9782182123095483,5.011777372153036,1.260884263509423,0,0,1762277789.140152
-95.7221050415223,-0.9994539443142464,-0.7809725992522272,-2.2635000581529185,0,0,1762277789.140152
-26.34178933859973,-3.508965634444317,-6.929639244869507,-0.8540626838222096,0,0,1762277789.140152
30.61881513117454,2.3785516507514215,-5.006945304680118,-3.0719392229282443,0,0,1762277789.140152
-9.503751809372764,-0.005879169609073293,0.3892635162138983,2.595784095283243,0,0,1762277789.140152
-29.00030427366373,-0.11395593305603809,0.513707952693455,-1.0078915043774128,0,0,1762277789.140152
-0.44809134258205063,0.25230139772332544,3.268247240932741,0.9735357080347105,0,0,1762277789.140152
14.943251198364417,1.9460232549600096,7.763935302343442,5.094394494045934,0,0,1762277789.140152
22.92271430096382,-0.30536702023054113,-2.9030440769763057,-2.532833953089946,0,0,1762277789.140152
36.32633707509152,-2.115544372094099,-4.018772582981152,-0.9173021851645127,0,0,1762277789.140152
-55.640285074244225,-0.760220724855593,1.9780011285711048,-3.93815669949227,0,0,1762277789.140152
45.15309893832037,-1.2486422868040286,-2.722440131420843,1.0951103336690156,0,0,1762277789.140152
-36.76378851586727,1.5481006314027561,-3.0884933480051817,2.7776009242407165,0,0,1762277789.140152
-37.64782237312751,2.6254514069136112,4.008277861031859,1.3663163841929291,0,0,1762277789.140152
46.274068034523324,0.06768443306228544,2.3243446220118167,-2.4775081722052894,0,0,1762277789.140152
-2.4337706474414897,0.3917516756427706,-0.794512660005093,1.995361663818026,0,0,1762277789.140152
-23.052421896314012,-1.2892539450161504,-1.4437551680658043,-2.8197048127060524,0,0,1762277789.140152
5.383498530847723,-3.593031944997206,-2.807823960241768,-1.8800638289875404,0,0,1762277789.140152
39.52867945267473,0.07210619768396967,3.469177852029161,3.3407761204429685,0,0,1762277789.140152
1.225670200148541,3.511624707506538,2.7062581637432155,0.4047051517628707,0,0,1762277789.140152
-32.82544890364168,-0.3546504860112289,-4.987304551358537,-0.18719846480905292,0,0,1762277789.140152
-54.17748564133002,-0.004555312399637449,0.18331338267966296,-0.5753863155476258,0,0,1762277789.140152
29.679845343363077,1.9902605353553835,1.3512618941489896,1.1886067906412496,0,0,1762277789.140152
118.05813321597155,-3.356798335510081,1.6809344959635075,-0.821588941316807,0,0,1762277789.140152
-45.72300345285153,1.0017290714531166,1.8822698877927615,0.3795519891183579,0,0,1762277789.140152
-81.97087538274387,0.359311228727009,-4.334080655305836,-2.4775808538753887,0,0,1762277789.140152
28.70943557924251,-2.744337470679968,-1.6734525714864217,1.1503483786250497,0,0,1762277789.140152
-7.268330655982116,2.22400672134865,1.7853446894381817,1.3187432429066732,0,0,1762277789.140152
2.7846439721103833,0.5318996497006774,3.3032100829666993,-0.8955359548325419,0,0,1762277789.140152
66.31425261301686,-1.9113629130650553,-1.2369732884745408,-0.27255346186709534,0,0,1762277789.140152
-78.87013147329787,2.1233098892165363,-4.827990846449115,0.30522376936502965,0,0,1762277789.140152
-33.41951818866824,1.6141236334583988,2.3172006810249175,0.8952757662660858,0,0,1762277789.140152
31.203953996337745,-0.5918055396804238,4.559040032896159,1.121522284305743,0,0,1762277789.140152
133.85137308677173,-2.758854505782262,-1.582070799173753,-1.8598740557890543,0,0,1762277789.140152
14.298341766091381,0.5847523027835558,-2.84233605000342,-1.91503177611456,0,0,1762277789.140152
-198.01335910210966,-0.42677367051471365,-1.838856213527263,1.367076981948465,0,0,1762277789.140152
8.235129314622617,-0.11366602136485623,4.353198886369697,0.6957161842601561,0,0,1762277789.140152
-20.38201659228549,1.7035760295953406,3.926755414406506,-0.5890637471990158,0,0,1762277789.140152
194.18277061262285,-1.356307378083229,-8.896126732357022,0.19712943826555,0,0,1762277789.140152
-3.030047748628347,2.1469380744103668,2.3391050396926545,1.5909876233779503,0,0,1762277789.140152
-149.84766661201746,-2.794481351177966,1.1560409659608673,0.9791589232436061,0,0,1762277789.140152
-8.320230148303736,0.17276060966290174,1.0382705671648367,-1.6342687793658686,0,0,1762277789.140152
10.227592215415854,3.427591048095392,-0.847657877097046,-4.025191988568286,0,0,1762277789.140152
67.15671616610967,-1.3036672441052375,0.01027484181420811,2.4637351198857544,0,0,1762277789.140152
79.55217091113755,-0.6473108973273355,1.570700375928207,1.2232126312279465,0,0,1762277789.140152
-59.95693728897191,0.820353353783027,-3.5984745905601416,0.22745711570727206,0,0,1762277789.140152
-109.75841797435422,-2.5364058857355154,2.5377988050605835,0.5859431878337527,0,0,1762277789.140152
46.80484287973747,-0.7953523970290503,-3.4350222538981994,-0.7721801517125844,0,0,1762277789.140152
-93.15277063073684,1.0735280881357567,5.436447764986898,-1.1868069968764736,0,0,1762277789.140152
212.1589285862579,1.8350241855374234,0.3636361046498646,0.5759987761842524,0,0,1762277789.140152
64.64535489053974,1.3862065195944486,-3.180886937702234,0.1984797313067736,0,0,1762277789.140152
-198.21846187143592,-2.6234907300921435,-1.9444961908952263,-0.9859783094309739,0,0,1762277789.140152
-35.10954144441412,0.009690167260645498,0.8956898126635623,0.8424346645521497,0,0,1762277789.140152
12.078290268698332,0.7363665613195562,0.260034760374466,-0.5421945237290363,0,0,1762277789.140152
86.37610964606186,-0.33379555834158503,2.048681070164376,3.286619392852238,0,0,1762277789.140152
10.992088707427737,1.2945393391380784,1.2111486086885415,-0.7394031764630355,0,0,1762277789.140152
-56.046337014105454,-0.28655375498220037,-1.2466211778239276,-1.9672786193682719,0,0,1762277789.140152
40.66247781911742,-0.907818348546811,-2.5685527564783284,-1.2403178650813356,0,0,1762277789.140152
-3.870762447574094,-1.3206654536538498,-0.6916724363521262,-0.05670105518699887,0,0,1762277789.140152
-24.732382512217086,-1.7673228407413357,6.09637252297751,0.9731062361294778,0,0,1762277789.140152
5.658122456735622,4.095477185533299,-6.872884381416551,-1.6785654362685924,0,0,1762277789.140152
12.934639232338517,0.19604636594343988,4.565625675018186,3.273133882060489,0,0,1762277789.140152
8.404936871898377,0.7102299869749741,-0.3027798278810946,3.385944364853766,0,0,1762277789.140152
-57.888911715262545,-1.281132548167243,-1.7417657416982595,-4.013289665270495,0,0,1762277789.140152
11.472284055216992,-1.7905986013138482,0.6817014947165274,-3.300596536447742,0,0,1762277789.140152
87.55998772457792,-1.1145081235469148,-0.8771523867140085,0.6945646110789885,0,0,1762277789.140152
-47.29761057979763,0.810492823079157,-0.19676239672286147,3.435317277773001,0,0,1762277789.140152
-92.83022654849191,4.934100800689891,-1.3313153238037148,0.739665981677048,0,0,1762277789.140152
139.24911515359946,-2.592048988451152,4.068428756574006,-3.7232917653381232,0,0,1762277789.140152
-18.956007935456146,-0.8256235470198305,-1.508352510587965,-0.19779751251500213,0,0,1762277789.140152
-86.27276306898084,-0.29508420989100653,2.2027375641708895,3.0207388400028727,0,0,1762277789.140152
5.6463176173595375,-0.3616027749009877,-1.3170569846158995,0.3218756724892969,0,0,1762277789.140152
62.09950629361109,0.8264678693339443,0.19612563348396855,-1.1658045800771124,0,0,1762277789.140152
31.16354369728069,-1.545047006675202,-1.6176193697684096,0.5762925815372528,0,0,1762277789.140152
-39.79589318634458,-1.2922330609430088,-4.899083313905848,-2.1996616067181156,0,0,1762277789.140152
-78.32993553385418,3.1935212619113638,0.4888214715525559,0.9669764865959319,0,0,1762277789.140152
82.73102760986731,2.745629455025629,5.660324507124408,-0.47645043984508945,0,0,1762277789.140152
37.89049283713784,-0.8805023872421016,3.635415649240198,-0.9454010555026706,0,0,1762277789.140152
-69.09980069284721,-3.3747347938274124,-0.6356071489737274,2.4304556116054084,0,0,1762277789.140152
-64.61606904595773,-0.37162795631130885,-2.986230787122854,0.9941690738345653,0,0,1762277789.140152
34.602935683856614,0.8851917627536416,-3.2678147682834724,-1.7248808295973561,0,0,1762277789.140152
190.45053614408965,-0.4454260838512652,-1.2971633111861989,2.0905007389660297,0,0,1762277789.140152
-146.82074493883562,0.05087632975927359,4.423729483930554,-1.453439442823981,0,0,1762277789.140152
-66.76182804662004,-0.5505699575577442,-0.15788074349282089,-2.9027237133344395,0,0,1762277789.140152
32.78815148448669,2.5661505003214944,-3.1385829918496126,0.9161903602019164,0,0,1762277789.140152
118.74405318380722,2.448390555579832,3.8314095158006762,0.47515192298680653,0,0,1762277789.140152
7.469528803834886,-3.8126019464969723,-0.28595867834434335,1.9752780369636682,0,0,1762277789.140152
-141.75211866939907,-1.6370715271997187,0.1875594540500775,0.04164815943196906,0,0,1762277789.140152
-42.92380064238616,2.332342164012489,-3.3763510104834595,-0.24700042449372275,0,0,1762277789.140152
49.10589827900459,-0.18471365839361187,3.072024705689283,-2.5011677423447582,0,0,1762277789.140152
35.00596698047799,-0.3596510955204752,0.07750401185641685,4.333787427885396,0,0,1762277789.140152
-23.00223393804751,-1.0169591993245064,-1.1630336957043137,-3.294599000613159,0,0,1762277789.140152
27.343197534342735,0.9774431677767864,-1.557027411495888,-1.519007311287063,0,0,1762277789.140152
78.32818560254839,-1.5895286346275703,-1.4303950741361031,1.8326728523888638,0,0,1762277789.140152
121.48668516212513,0.364927294865649,4.245000123559329,-0.10279418473151909,0,0,1762277789.140152
-129.06582387818864,3.034958946776893,1.802419030071117,2.7006997084462068,0,0,1762277789.140152
-55.48727017577693,2.6989853844811353,-0.26185101148973294,-4.128474698231456,0,0,1762277789.140152
-121.54764212926489,-4.232862501163557,-4.639151174335988,3.6948016199006752,0,0,1762277789.140152
-97.3416578874146,-3.1611773253396747,0.13260607937690744,-0.5406939033317899,0,0,1762277789.140152
143.0673867203347,2.4578089303294073,0.6672664375274893,-3.7855256301671236,0,0,1762277789.140152
7.410926171231656,0.06892455393442824,0.9011903776572644,2.995144510365436,0,0,1762277789.140152
97.78610648026887,0.3859102841787154,2.245319486856323,-0.4874457248712095,0,0,1762277789.140152
59.988180754852195,-0.35897003852620185,-1.9374992363655015,-0.4346250753149359,0,0,1762277789.140152
42.39107999425542,1.2675116736048642,-1.8753084620189862,-0.8054976746350129,0,0,1762277789.140152
54.14172448943717,0.6951830029662255,5.015900917450809,0.03318426428466631,0,0,1762277789.140152
-275.219752565357,-2.074500226954504,-3.250789796468584,2.468123058130923,0,0,1762277789.140152
-57.8994976471868,-0.9866763825728361,-1.6399808981455273,1.0877337962696525,0,0,1762277789.140152
39.79991651170435,1.4318555158346924,0.5787993514953416,0.8640392169203662,0,0,1762277789.140152
52.86367196818447,-0.011319940250141164,-0.8960843602366246,-4.5812876843014925,0,0,1762277789.140152
160.95717444009296,1.2313620498584823,2.566429922028644,-0.9226582132766622,0,0,1762277789.140152
-123.64018221076137,-1.293241379037448,3.5059718914115576,-1.675769332387536,0,0,1762277789.140152
-45.745219521689684,0.7772402998863556,-2.5859402050515388,2.4550597138920542,0,0,1762277789.140152
-12.505345795560237,-1.2995492792842385,-2.913968356634027,3.7240894248545997,0,0,1762277789.140152
139.8882597242387,1.236401664215367,2.579892938164354,-0.6469178061676737,0,0,1762277789.140152
117.110782039291,0.2552633047189719,-3.2078336682911983,3.4926107208070074,0,0,1762277789.140152
-175.9498861278844,-3.8091726754084587,-1.656707582298205,-5.301572515147985,0,0,1762277789.140152
-194.61371503176835,2.202628873944333,-0.4667239192784698,-2.4147327559930303,0,0,1762277789.140152
25.256856222753484,1.3734656364980402,6.829389758610981,-1.2695317730948306,0,0,1762277789.140152
215.693050350558,0.8197522337405085,1.1117695013810218,2.367916264059467,0,0,1762277789.140152
60.261302371200514,-1.0924367734902423,-0.4729588258409273,3.7958183880877354,0,0,1762277789.140152
-25.391822290123702,1.0232346969185169,1.114218371786956,-0.464339065426048,0,0,1762277789.140152
-136.06728447961152,-0.9999217125089542,-5.040790680169741,0.17247806857690862,0,0,1762277789.140152
-32.27188433821718,-2.3514976023142613,-4.065197237372896,-2.5419956151938075,0,0,1762277789.140152
4.137336085185736,2.1540699642601,1.4831990400150887,0.5670701385130457,0,0,1762277789.140152
71.19462853933716,-0.12320594235030434,-0.06934427095285753,-0.3567906360789787,0,0,1762277789.140152
68.3146402947408,-0.6505799908677405,1.8814973031275428,-3.560206049700703,0,0,1762277789.140152
-67.27325088021102,0.35184408856563354,3.5028942958479994,2.8198765488982724,0,0,1762277789.140152
-3.3721736628938443,0.1749513703207759,0.6023074979725818,3.3854334366850716,0,0,1762277789.140152
-33.07987740723568,2.0725373242922824,2.6877076257642156,-0.6426225690655611,0,0,1762277789.140152
37.10218857390953,-3.8035532194523385,-4.719617635848002,-0.46378263857289564,0,0,1762277789.140152
18.566650801213452,1.1201269381124976,-4.04617480775875,-0.90662147906205,0,0,1762277789.140152
-31.547338133153602,2.160347282686117,1.566959436902678,-0.417146089822019,0,0,1762277789.140152
-22.45328567581032,0.1314866158836009,3.8334598736931045,-0.9555103151432343,0,0,1762277789.140152
29.243750410356416,0.05636926539358269,-2.4352396934030325,1.6734250614494752,0,0,1762277789.140152
50.623268745705914,-4.946532252834877,-2.6936636836728525,-3.6596493941246115,0,0,1762277789.140152
-20.599055627139066,2.224278078814301,2.9686619591633643,3.4007075056693767,0,0,1762277789.140152
-44.91016775303861,0.4816728426258819,2.5747485730217803,1.471908196033017,0,0,1762277789.140152
-77.4514724083843,0.03576096104372156,-4.822165712367491,-3.7598418503675823,0,0,1762277789.140152
48.83565364768351,2.2505891869015526,3.175149737763358,3.6846867421566953,0,0,1762277789.140152
128.20556563875488,1.0692322865690227,-0.23624786103089385,-0.21274342011759265,0,0,1762277789.140152
-33.00286637860844,-2.8263979612668586,-2.180881152849452,-1.9837866724002675,0,0,1762277789.140152
46.26902877209041,-1.8864553327887645,7.262457035484765,-0.06552140917136279,0,0,1762277789.140152
-186.41156101068066,1.303990569689158,-5.097311535306637,0.6137560344365891,0,0,1762277789.140152
-51.83920314925261,-0.1186965342785173,-3.4019848187678923,-0.9549298774092982,0,0,1762277789.140152
140.56862786258196,2.264212259149093,2.2628264833803615,0.2078801005805068,0,0,1762277789.140152
3.0023810314547426,0.27046085692893007,0.6100289941886231,0.4469102308846935,0,0,1762277789.140152
128.81290613130855,-3.017239687915959,-2.322203574236451,1.8118372810462307,0,0,1762277789.140152
-67.22382467460424,-1.5534789122475643,2.391155113874669,-2.0950999334115106,0,0,1762277789.140152
-52.4755483220608,3.7796828651163326,-0.29402787824210375,1.1371281407572393,0,0,1762277789.140152
-89.31562861809641,-0.5932263551128872,-0.09607207527565453,0.19481851383121418,0,0,1762277789.140152
-3.5621504626513003,0.596628162038467,2.3957352243019834,-0.7659847530922409,0,0,1762277789.140152
37.61636861668587,0.6341171073204375,-1.1002555217657457,0.4801533089654663,0,0,1762277789.140152
84.96415821381791,-4.147841853105069,1.171374365136213,-3.041552248204338,0,0,1762277789.140152
58.63498681518693,2.480748252815255,-0.9684227385221142,0.3896072213914759,0,0,1762277789.140152
-124.1043813883983,1.5838916161385028,-3.6782686089324312,1.6604645076029951,0,0,1762277789.140152
-56.442739094738755,-1.2713677656992488,-0.7660049042064423,2.0214469261191326,0,0,1762277789.140152
53.950461303086044,0.2833072472406567,1.6635603021821614,0.8618553402756672,0,0,1762277789.140152
144.7888772210801,-2.083473698620445,2.512663210478465,0.33325867684213756,0,0,1762277789.140152
-67.92071053980028,-0.6928049949411711,-0.2850248548586048,-3.0720564732358606,0,0,1762277789.140152
-65.24016679392875,2.9478186559183213,0.19823409129518182,-1.7909190726797166,0,0,1762277789.140152
-53.65592559771865,1.0631661583316687,1.9419287710186088,0.16255271869323917,0,0,1762277789.140152
65.4056937372489,-1.948620012651991,-3.0569405469638995,0.639118256374242,0,0,1762277789.140152
49.71434121691487,-0.8569072675678087,0.7558216950300817,1.7356428489843778,0,0,1762277789.140152
-92.03421552516174,2.9338404707660892,-0.9935207020292435,0.4194968811026322,0,0,1762277789.140152
-69.13539918679734,-0.4117847103027871,-2.1932454278115867,-0.41880055848549885,0,0,1762277789.140152
14.87485946397492,-3.0092496537157105,1.3097933788173335,-1.0626121033856932,0,0,1762277789.140152
106.2598509299205,-0.341515442463146,4.189178767955984,2.219714780066658,0,0,1762277789.140152
241.50687253572238,1.2573974667089745,-3.3321412821084087,-0.03520671487279274,0,0,1762277789.140152
-66.6655223749554,1.2934487109821238,-1.0237053046920461,-1.8241056237922628,0,0,1762277789.140152
-222.36940901110262,-1.2880660025678496,2.973995857850867,-0.41660048460496046,0,0,1762277789.140152
91.641866064206,0.4322315859689891,-0.7148530744042324,-1.8044994216256314,0,0,1762277789.140152
-181.53753239344564,3.695758080865545,0.10065650438833236,2.147069967993312,0,0,1762277789.140152
67.21894765254773,-2.1424781390802328,-1.4784403577315401,1.4766309377449651,0,0,1762277789.140152
-13.30705044148045,-2.5586464739057897,0.9793097386044086,-0.6525258081007375,0,0,1762277789.140152
77.26149678996329,-1.651237275277095,0.5517229858108756,-0.8394549059240248,0,0,1762277789.140152
-138.9270029309827,0.5616386393862522,-0.5798125008865626,-0.06567355154641469,0,0,1762277789.140152
-36.76869398618747,2.3326078137764794,-4.4940899665585485,1.251755815313405,0,0,1762277789.140152
59.374944042598806,2.1662579476957373,4.162618467370179,0.7073707818286852,0,0,1762277789.140152
257.00555072506734,0.533724304977325,1.7259467138385405,-1.9019496065323298,0,0,1762277789.140152
694.0830452865619,-1.9635090384988292,-1.208028145727515,-1.0172983098642783,0,0,1762277789.140152
-747.2996637920494,-3.5584246237043,0.6314636107791323,0.27853131215116494,0,0,1762277789.140152
-341.2056023396501,-0.5109523549580083,-1.4739132214889816,0.9975365654301465,0,0,1762277789.140152
108.76406691487605,4.859872358187916,0.548279213110117,1.9139065096633074,0,0,1762277789.140152
-137.00427602342486,-0.8244991223425377,-0.17385110362554607,-1.7551095731033932,0,0,1762277789.140152
77.2448695480296,2.0121567528370377,0.03456088150846674,0.5081680201282255,0,0,1762277789.140152
198.04809135779547,-2.7166346016097194,0.6973644518707329,-1.5998443784115293,0,0,1762277789.140152
189.31924501825515,-1.8315761284860568,-1.4376324947067392,0.1812749940560213,0,0,1762277789.140152
-56.16065950864582,1.5971631795259944,0.3442183410944967,1.3566473801459102,0,0,1762277789.140152
-47.30469584093507,-1.17442545040639,-0.4089342663959607,0.4295640284058623,0,0,1762277789.140152
-130.04809999390739,0.3676254947351289,-1.3807776878693359,-1.0877807643955226,0,0,1762277789.140152
54.33432772548237,1.0995222305388772,4.100754529848879,-1.3533689666963986,0,0,1762277789.140152
-57.252675617070174,1.176089013490807,-2.390919382609833,1.736548737738306,0,0,1762277789.140152
76.23513014349247,0.4815023021152813,3.0936854336955797,-0.32193279400371266,0,0,1762277789.140152
33.02858878106169,-0.7590994437339661,-1.356245643217091,1.9235549762799857,0,0,1762277789.140152
-110.06390819319579,-1.8636133697054516,-1.9738684212367636,-1.074251432760416,0,0,1762277789.140152
42.0975744799521,-0.35628616879648106,-0.5636898504636527,-1.2378256472394524,0,0,1762277789.140152
-35.737541550387206,-0.7869027924977063,-0.5790908456256162,-0.5532708284304029,0,0,1762277789.140152
94.24400458183145,2.1690541495052176,2.490036433705126,-0.26748506545456086,0,0,1762277789.140152
-10.496454719135178,0.6855496934793314,-1.7134113526254553,1.100314417934161,0,0,1762277789.140152
-78.72248768848515,0.9194157604515711,2.3263714620004876,0.17460100375928164,0,0,1762277789.140152
0.8113911930035907,-0.09232055791706835,-0.22167958659755133,1.0428845760457286,0,0,1762277789.140152
63.78972436082906,-4.044294147624621,-1.2611740197498287,-0.8507262712946543,0,0,1762277789.140152
25.397176282140585,-0.05668989177230891,0.059721088401530495,1.073142654054326,0,0,1762277789.140152
-45.90729223324425,2.656776426195909,-0.052116568691025184,1.245560981716689,0,0,1762277789.140152
90.6111424874938,-0.08349505031653683,0.15407483985536946,-3.4944433442928173,0,0,1762277789.140152
-167.3996203527065,2.5301804515881368,-0.8974749454899174,-0.9997787489306679,0,0,1762277789.140152
-32.813181201646955,-1.32055872756093,0.7914171640216362,-0.2973461182065041,0,0,1762277789.140152
95.3792654229177,-3.1787600325993086,2.1355914317481646,-0.2807922444601956,0,0,1762277789.140152
130.28259664446134,-0.1892041796422735,-2.1200858664291533,3.5724911510595874,0,0,1762277789.140152
-116.01153755915777,0.8115557125250054,1.2649672135086643,0.3613301648768866,0,0,1762277789.140152
-48.08299420114944,1.9791083809040773,-2.6230395932849087,1.8200449240433505,0,0,1762277789.140152
111.74387772923559,1.830122286307952,-0.7070097506077045,1.2801252597869524,0,0,1762277789.140152
-109.72919681381664,-0.3783837728788229,5.033569798485317,-5.298092583268544,0,0,1762277789.140152
62.88092265583109,-4.6725204796181385,-2.412360844791972,-2.9172558087751193,0,0,1762277789.140152
-43.841828081833235,0.9892900610051574,-2.9172107271332957,1.4839056242826898,0,0,1762277789.140152
-7.273523461066283,2.205420661883643,0.24869830336348595,0.8928489247696657,0,0,1762277789.140152
19.26243978525996,-2.6712313152103206,3.0134222032278988,2.234655728742198,0,0,1762277789.140152
126.27400347794435,-0.2314624859785044,4.004552101463266,0.31685512894956186,0,0,1762277789.140152
-162.66315342125316,4.3501731232427066,-5.109705891162304,-0.862636603077394,0,0,1762277789.140152
49.125163664334195,1.6339837161902648,0.5748426289996039,0.9963655693532174,0,0,1762277789.140152
56.48425890476954,-1.3955500925130149,-1.4178127995195529,-1.458184088015201,0,0,1762277789.140152
-92.58339435694161,-4.59997692931702,1.7507291338135398,0.7163985421590144,0,0,1762277789.140152
59.68676871125816,-3.208536123944756,-1.9914201796095452,-0.9292253376425674,0,0,1762277789.140152
-135.7474719938416,4.003717406393642,-4.185068781736602,-0.8031802165195758,0,0,1762277789.140152
-7.207359648818597,3.49015219174014,11.34911355737377,1.3140790933780588,0,0,1762277789.140152
125.55753121173173,-0.50065048739689,-3.501020989106287,-0.4420187862558101,0,0,1762277789.140152
237.46073328389082,-0.01624690726135474,-1.9928976942793692,1.9775890072037228,0,0,1762277789.140152
-159.57865963840794,-1.0530949179931,-4.463021957094975,-1.828460297899952,0,0,1762277789.140152
-44.22442241521944,-1.9557166370126116,3.6873315584361968,-2.679683735125335,0,0,1762277789.140152
-68.64578706521074,-0.34552027617379505,2.9562212252882127,2.2572987866575045,0,0,1762277789.140152
-51.73321781063725,3.4048012990669383,-1.5797314217510845,3.0067320817371064,0,0,1762277789.140152
48.43202882464628,-0.49558130694109914,0.8777574773590678,0.38214106497449796,0,0,1762277789.140152
-126.84546820099524,-3.4730690907721,-2.0774537650680203,-2.562679580604063,0,0,1762277789.140152
93.98245509637171,1.5425255922805827,-3.8954088033052705,-2.3541259347489145,0,0,1762277789.140152
84.6843791341863,-0.39239840355935807,0.6310065176331614,0.1579336820275807,0,0,1762277789.140152
23.931297267508093,1.5410196954556141,5.2394042403825996,1.350176519318403,0,0,1762277789.140152
21.343480502898963,2.007946240676279,2.699923853686868,-0.5760541800207825,0,0,1762277789.140152
32.62736815801166,-2.169972453562456,2.2018580269683974,2.0544062420434477,0,0,1762277789.140152
34.175145595594664,0.8093957627777851,-8.044754830116926,2.0908001245215733,0,0,1762277789.140152
-19.885245538706943,-0.051782542084395845,-1.6150955819147308,-0.7384936516921564,0,0,1762277789.140152
-128.153576045727,-2.798583668587048,-2.489902351768077,-2.8148334075230945,0,0,1762277789.140152
-142.55122501973636,-0.9879612970420902,5.070445378512197,-0.329279807544619,0,0,1762277789.140152
-3.4430876547457165,0.5622566865296059,1.6013509885568942,-0.6315054352737216,0,0,1762277789.140152
18.915969598411678,5.401739434490371,1.6058324360636824,-1.9770956694053532,0,0,1762277789.140152
107.75999807216986,-1.3782341527853004,-1.4234820799897936,3.638540176604303,0,0,1762277789.140152
100.85703630151868,-0.6475983330672905,-2.539128475203532,3.2973871753665738,0,0,1762277789.140152
12.597886627387826,-2.175245126894982,1.841519483187211,-1.2509198188374726,0,0,1762277789.140152
193.6906207482674,-1.2407083030397552,-0.4243294351480647,-2.770695358478655,0,0,1762277789.140152
-191.72591922549455,2.279084049308676,1.3395414139854687,-1.1712434376822634,0,0,1762277789.140152
-164.31467710429678,-0.019394723349412175,-1.1234122179476267,0.6419735803756157,0,0,1762277789.140152
-58.067766633339936,1.900992302963288,0.5383520023868862,2.6483035877988392,0,0,1762277789.140152
49.0508878648115,-2.0790182673539395,-3.3480269208455975,-1.6693434525361839,0,0,1762277789.140152
137.98932044291234,1.095064259963622,0.5446772435816453,1.0429575836728202,0,0,1762277789.140152
-2.2550289022963517,-2.280755272508563,0.8849714346093079,-0.4141755822819313,0,0,1762277789.140152
-23.229498512006042,-0.10609976737304626,0.24372314887722782,-2.24540346895262,0,0,1762277789.140152
-58.21022218926526,1.3789959009306985,2.1858875478093522,1.0813734558026054,0,0,1762277789.140152
-16.136979371327588,0.9041389100986299,3.7092104564307853,-0.12408105993161386,0,0,1762277789.140152
63.34652222719529,0.011351995931779008,-4.5584450062639625,1.6366809889634168,0,0,1762277789.140152
157.09152191227034,-0.33947488583114915,-2.519882633195042,0.9559789040690259,0,0,1762277789.140152
-126.441823060156,-0.25029536830031107,0.3991865944254462,0.0030063383798570142,0,0,1762277789.140152
-116.72935515657615,-1.3307242223831048,0.4878281550127961,-2.5963894286914364,0,0,1762277789.140152
-2.701943061479817,1.197494860718037,0.7883249904199979,-0.9510649369208201,0,0,1762277789.140152
17.521232618521427,-0.4104308647309704,2.2011790810787732,1.719187287645321,0,0,1762277789.140152
40.388705335199376,-0.16542896650557232,-1.8087718958133348,0.2759886515072875,0,0,1762277789.140152
221.66410470649888,3.0575887311479777,-2.0783490230512545,-2.152389198531911,0,0,1762277789.140152
-163.14115829185818,-3.55533677140959,5.545147370489976,2.4597102213303925,0,0,1762277789.140152
-112.15659238121513,-1.261812771896575,-3.050266941687786,0.4670055114036831,0,0,1762277789.140152
33.41815957513541,2.4418629660835993,-2.2764306817876965,0.7053794985662616,0,0,1762277789.140152
-7.192925520938373,-1.2619622754192423,1.3049122782029652,-0.20615534156866336,0,0,1762277789.140152
87.57923745488897,2.863090067129434,-0.22913190464503774,-3.3054028357128176,0,0,1762277789.140152
37.231469945657174,-0.4025103358640478,-1.223108177196195,-0.7251272243606015,0,0,1762277789.140152
-102.64424026197733,0.16310366634468892,3.790398114982236,0.9327163875085707,0,0,1762277789.140152
-24.990990448156023,-1.5995767961110026,-1.6110047910938055,3.702981333795712,0,0,1762277789.140152
51.734456156533184,-1.2044294001606444,-2.1788053390718147,0.3670182157334492,0,0,1762277789.140152
4.858343029263844,-2.029720983415166,8.831482899532189,-0.23683476279136909,0,0,1762277789.140152
215.16777621301773,3.085016824862467,-6.248884667173589,-3.727432634797956,0,0,1762277789.140152
-270.0396849216294,0.3513827961393085,-7.193132899255437,-0.8322088460922216,0,0,1762277789.140152
-78.48070961637562,0.5803178883295452,7.009972062452875,0.8260292763459577,0,0,1762277789.140152
-7.018270895276294,3.3670363418830167,0.6688012219853005,0.7973762442261505,0,0,1762277789.140152
94.89750899837837,-5.547392274779323,-0.5196107105275661,0.1465852398872102,0,0,1762277789.140152
166.69614005585734,-0.22563379363276306,-0.8035082398128431,3.278758367775501,0,0,1762277789.140152
-58.40983601261287,0.5162167285598199,-2.7847692885750086,0.19534353155873668,0,0,1762277789.140152
-28.977221633407584,1.792956271310938,2.62736126704904,-4.466199896889311,0,0,1762277789.140152
47.234747998158056,1.0370267448804242,2.067189001361846,0.797839475632664,0,0,1762277789.140152
-30.686967518743728,-2.710635979411147,-1.0512993538799948,1.0025821176774306,0,0,1762277789.140152
-61.72925304872582,1.3205229944109824,2.804568627815729,0.43172686579458885,0,0,1762277789.140152
-124.67932862562067,1.6047655150098792,-2.0302582334171904,-0.23876051950643687,0,0,1762277789.140152
-54.38755098486962,-3.737525261414007,-2.3008607774589387,-2.830286771868465,0,0,1762277789.140152
178.36722672358698,-1.2758659178185574,-2.4453620485530543,-1.085927082564547,0,0,1762277789.140152
27.156927975526703,3.949355648150711,1.183098187493268,6.347442034517811,0,0,1762277789.140152
89.5321787799163,1.0659259963267513,0.5893006294316769,-0.816192444826019,0,0,1762277789.140152
-16.914137031478685,-1.9672744668260747,1.3515020625388339,-1.1183721864452074,0,0,1762277789.140152
-7.753719135438031,0.7697506037901352,4.214335522651506,-2.1582357986920444,0,0,1762277789.140152
-86.42853233086242,-0.5128238083660239,-2.3722276909456883,0.03505633723960485,0,0,1762277789.140152
-75.88762934874036,1.0996430729687312,0.5063355175944042,1.359595375961231,0,0,1762277789.140152
-4.356500864931707,-2.207737071216696,-7.15420072151642,0.5410080011311751,0,0,1762277789.140152
17.937009144270252,-1.668286302798675,3.39709526305313,0.6784165909317625,0,0,1762277789.140152
49.291090622781816,2.2123904824390968,3.484116599528079,-1.846146198653789,0,0,1762277789.140152
163.4126482715529,-0.33705573051801646,-2.0662380229303063,-0.1316721620502785,0,0,1762277789.140152
-41.21291957905573,2.604236246047539,2.384149072221118,-1.6519189638967626,0,0,1762277789.140152
-168.03995625859648,0.1009142470613496,-0.916021748171098,1.971118287937775,0,0,1762277789.140152
-5.887613680404482,-1.0135508799012858,-3.739617514974535,1.848523364390327,0,0,1762277789.140152
51.82691700927728,-3.7445314983979623,1.1508968969755997,-0.800910806218006,0,0,1762277789.140152
28.149403588612614,2.1892479323742227,1.6261791021233543,-1.3940322409423578,0,0,1762277789.140152
6.22241712863207,1.4212661995026517,0.22756543422010433,2.0246183487951557,0,0,1762277789.140152
-29.185796678824,-1.4499702992642458,1.7102764373554808,-0.9883142440535899,0,0,1762277789.140152
-16.395173320202602,1.7514701256372478,-4.627079859514212,-0.6869574781023807,0,0,1762277789.140152
67.59839216467488,-2.3938958532544015,0.2567210279192036,-1.8842229612695232,0,0,1762277789.140152
-62.835441451653324,1.6607645529765207,2.820019412049708,1.5922236950957078,0,0,1762277789.140152
35.5253706622965,-0.24676251174575367,0.9990979596590165,0.9659535738420962,0,0,1762277789.140152
4.37839275346602,0.09913785343633674,-2.3346552522784183,-0.5401678011782111,0,0,1762277789.140152
-36.013467556511394,-0.15819748225473726,2.4898006820321226,0.42176865934809976,0,0,1762277789.140152
-37.197312764016935,-0.6307736881516923,0.8146882841154273,0.5287145734977408,0,0,1762277789.140152
59.361845025739825,0.30648529251532536,-3.9979005485440298,2.1259401936599964,0,0,1762277789.140152
94.02291511041194,-0.28040303105143755,-2.870170246197091,-4.435666364492633,0,0,1762277789.140152
15.272549013524378,1.9404460998226065,2.515910269245281,-0.3105875927188985,0,0,1762277789.140152
-65.54408323278528,-1.173448488125983,2.095465359641567,0.5732033249212143,0,0,1762277789.140152
-127.71438949956428,-1.3155101154929274,3.390663893281772,2.8459608758146455,0,0,1762277789.140152
-97.55800821255671,1.4312781041266904,-3.582127237582124,-1.6166274963996468,0,0,1762277789.140152
55.69039603048052,0.20312089970970268,-1.7243346150037058,-1.8815250936361985,0,0,1762277789.140152
151.37327737326464,-2.2521420867699407,4.484482073424986,3.5837577979521225,0,0,1762277789.140152
61.959605255852,1.186974125255932,-7.084780836617736,-1.2095856820904014,0,0,1762277789.140152
8.280027432618642,1.2782137662282789,2.296938397279162,-1.0395734319463454,0,0,1762277789.140152
-41.121764852592406,-1.4901490601046998,5.401344849995674,1.4701654894579441,0,0,1762277789.140152
-34.4357724177716,1.5713962668985764,-1.167182532504595,-0.8829333221619448,0,0,1762277789.140152
-82.94984186162893,1.554024677744258,-4.473322237112348,-0.7487999123851371,0,0,1762277789.140152
-26.56973877812073,-3.1195486980065374,0.9275657304903057,0.5128836626609502,0,0,1762277789.140152
140.47166445748962,-0.901075283458018,0.1804899096674093,0.01922111790644489,0,0,1762277789.140152
-35.2231156280949,1.5773397014873445,0.8791521769174093,0.4866789835340609,0,0,1762277789.140152
-29.116683060601204,-0.4919833515224164,0.7672049763965142,-1.0182699948817973,0,0,1762277789.140152
-47.91704744107645,-0.48299976167902814,-0.9864888648638093,0.21356890275414364,0,0,1762277789.140152
42.21272839505198,0.45699125233112275,3.4231740557509633,1.123074171247307,0,0,1762277789.140152
143.6286833439709,2.5022016535472584,-3.4466048283230633,0.5002190534927677,0,0,1762277789.140152
-138.07073270011927,0.20082124104697868,-0.2855022445671567,-1.0622901815041075,0,0,1762277789.140152
-131.99535274171987,-2.5899616959299907,-2.456704840191551,-0.008525996339282676,0,0,1762277789.140152
113.94009120901846,-0.49632229635626707,-1.4654290243466535,-0.3176770052591147,0,0,1762277789.140152
201.11076173421543,-1.4305118870267215,8.152950461955328,-0.9139668015513221,0,0,1762277789.140152
-144.55790664134,2.2812938309257635,1.0543783361550128,0.7125906273236862,0,0,1762277789.140152
-99.34255441868972,0.4640252544786395,-2.88670810434455,1.2250808356956882,0,0,1762277789.140152
32.67542419246344,-0.14096074384349244,-3.998697372401834,-0.4051187581830984,0,0,1762277789.140152
37.49894168162827,1.1756462527962017,0.3575624100707096,0.4895895354056715,0,0,1762277789.140152
48.39557827119698,-0.9241213190214097,1.3372550170931883,-1.6792366560463508,0,0,1762277789.140152
-40.54554730933082,0.6241781646930448,-0.07601143768343702,0.5872114857273832,0,0,1762277789.140152
-51.214709835450925,-2.7900467165216583,-0.2558006933778011,0.8508227377792161,0,0,1762277789.140152
16.426702955054147,0.642182016497104,0.013633777758425258,-1.4392845835767056,0,0,1762277789.140152
75.8435824346007,-0.28104602701012793,2.6605797429562084,1.889208677443097,0,0,1762277789.140152
-41.198718043885115,-0.00886665282578921,-1.541435232609819,-2.540278172920469,0,0,1762277789.140152
-0.2955743736158288,2.9482771557458802,1.3671905205637107,-0.3691153140785122,0,0,1762277789.140152
21.83042833987822,0.21360328374250584,-0.3207398696140465,3.547682193974791,0,0,1762277789.140152
-111.1697389326648,-1.3918890522034006,-2.240103596454672,1.5779157591943804,0,0,1762277789.140152
86.39639400852388,-0.4525978906891221,-2.300437976553677,-2.5250922972016876,0,0,1762277789.140152
78.16942429817661,0.3635553088364454,1.8783502650997435,-2.405630199700742,0,0,1762277789.140152
-76.47352589018114,-1.6114445020132153,3.542093355174781,0.12263688372573123,0,0,1762277789.140152
-58.5918526869329,-0.35089910043197414,-0.5874113957114571,-0.015532372071711764,0,0,1762277789.140152
33.84193807728931,1.1239499429846787,-3.101754553305509,0.8008888936076408,0,0,1762277789.140152
46.330344667212685,1.333922277120854,0.8917150425594647,2.4958265856907147,0,0,1762277789.140152
-15.770628586889002,1.5750282116217327,0.9369321246226047,-1.8432229452009465,0,0,1762277789.140152
-31.93899452219457,-2.783082470702152,-0.9764577915870923,0.4264158503532408,0,0,1762277789.140152
5.1284793793712575,-1.270820154328871,2.798273816180448,0.885847985633879,0,0,1762277789.140152
16.515385188281055,-1.0632861960106983,-4.08893692219524,-1.4735584470790895,0,0,1762277789.140152
24.939304029108353,4.047468587209525,3.484294913682134,1.9916636254881785,0,0,1762277789.140152
-8.447937244274607,1.4813818616943573,-0.455030822944423,-1.4677209512402603,0,0,1762277789.140152
34.53606290693695,-3.956164322633756,-3.4073144145305503,-3.4371336268975177,0,0,1762277789.140152
-22.278937192362662,2.4470476522364857,0.9148970871397308,0.9636620340212999,0,0,1762277789.140152
-72.44135750227895,-3.2729748626668203,-1.3012724474346415,4.043326157944953,0,0,1762277789.140152
28.348483376395436,1.5368382937138945,5.440237754370634,-1.4310869093393868,0,0,1762277789.140152
-88.75745827601865,0.6816161646179252,0.004029241617229033,-0.1150605998447008,0,0,1762277789.140152
-22.337823090279525,-0.17808668300895178,-1.805130257604753,0.052777909825981247,0,0,1762277789.140152
53.75654915837901,-0.08001772925049483,-2.7365634818683753,0.1661843239256475,0,0,1762277789.140152
215.10614903955525,-1.6709455340080792,0.8387486467174629,0.6649269104039311,0,0,1762277789.140152
-12.894599025373957,2.5713979932433118,0.40446857368192013,-2.5299586176902844,0,0,1762277789.140152
42.53634015177725,1.8414245351082201,-0.9363786903404654,-0.44565314216608093,0,0,1762277789.140152
4.214185262253268,-3.8643920006054664,2.584526648758109,2.1600858795368363,0,0,1762277789.140152
-28.47097326505609,-0.7991794247887326,1.411288550715939,0.7516476737648795,0,0,1762277789.140152
-231.20307129930845,3.3232141038403284,-0.7739217364440637,-0.4939610432822561,0,0,1762277789.140152
-84.55659906219435,-2.421327320408875,-3.1377725422713354,-0.4316860520718217,0,0,1762277789.140152
-426.64344689246497,0.47947231631985093,-2.592465873929877,-0.3141167553528028,0,0,1762277789.140152
7.38393960948684,-0.11162448703939921,-1.266598023196496,-0.7193820118098295,0,0,1762277789.140152
204.54381772284154,2.2535372987038884,7.619709897633534,0.8090565467098937,0,0,1762277789.140152
775.5181542704835,-0.7548977937915315,3.042162417847316,0.17317288476253215,0,0,1762277789.140152
1378.2665946649247,-1.9439985459799893,-0.07199738845122346,-2.0814545580274286,0,0,1762277789.140152
-1287.5590592896713,-0.09690611018472778,-4.466996665085695,0.36733141229837685,0,0,1762277789.140152
-860.5318246033365,1.5906427448297795,-5.418092453226029,3.6944072209377583,0,0,1762277789.140152
-232.98679612124943,2.3868373162587475,0.5800293848599687,1.7061361535891495,0,0,1762277789.140152
59.74899215996806,-5.045391921601137,-0.5902300264429245,-3.5569879228711696,0,0,1762277789.140152
356.50568180270466,1.3203839433609446,5.406551709728104,0.30491996777850794,0,0,1762277789.140152
50.2467124362161,1.0615456102253336,1.29800691630081,-2.4248608117315693,0,0,1762277789.140152
299.64155186287275,0.18226264131713318,0.6946559286748266,0.8880615913917457,0,0,1762277789.140152
46.59999190283529,-0.9131451008010135,-1.1129231866724212,-3.1213932870011916,0,0,1762277789.140152
15.36164531229526,0.3263502376516197,-1.6777774369473382,2.6508537600245594,0,0,1762277789.140152
-117.38550391708613,4.56033071456087,2.021527849865524,7.730937207021144,0,0,1762277789.140152
-16.859013024755242,-6.634953196070209,-4.733127326510355,-5.208263122338184,0,0,1762277789.140152
-70.25703746238257,1.511682484896623,-0.10616298791439994,-3.216697339571729,0,0,1762277789.140152
-175.00256067654237,0.11765296054774911,2.8390521094245957,-0.8390739998288907,0,0,1762277789.140152
18.09251337835126,-2.24186303633581,0.7957054490905008,4.6487328429845345,0,0,1762277789.140152
126.14799498977429,4.913654783207412,1.1865385322200017,2.1165877986478474,0,0,1762277789.140152
19.047199816002067,0.06117096959155456,-3.7906594625285526,-2.3559949584625346,0,0,1762277789.140152
12.688306429996585,-1.4899705977291056,-1.8467349874210253,-4.976140424921445,0,0,1762277789.140152
11.242352174764324,0.31349997716590833,2.270287530868654,2.075128892846953,0,0,1762277789.140152
96.95886355300019,-1.7323712966617248,1.2147141447572636,1.0533097398574882,0,0,1762277789.140152
-159.67313332429305,-1.359665698071749,6.552392314878287,-0.7844643428107144,0,0,1762277789.140152
34.41028651009134,2.9886965992104337,-0.3031518273066529,1.8830491316589728,0,0,1762277789.140152
-27.576894494861776,-1.9661104195897612,-9.723380084044683,0.4736309172901989,0,0,1762277789.140152
-25.415546396641357,0.870109245873329,-0.7308475721143356,0.7070351942837684,0,0,1762277789.140152
70.09365678603966,0.9851851107895742,2.189589889878759,-1.8226424228397422,0,0,1762277789.140152
-3.0123592443981626,0.641466077099683,2.355859861929568,-0.482408851434084,0,0,1762277789.140152
-34.20471908709684,0.8042058861738799,-1.0796654260111025,-0.7809131692267192,0,0,1762277789.140152
40.155098874941,-2.5588558307261677,0.6038683021595862,2.336691077149539,0,0,1762277789.140152
47.01049625316484,-1.0172972758133365,3.7480993471132376,-1.5907295920097755,0,0,1762277789.140152
-26.38156162196108,0.4895401467866738,-3.9409446901736906,0.41503194858987985,0,0,1762277789.140152
-94.2803843950019,-0.41602418739731484,-1.1463281018339495,0.30117393754563926,0,0,1762277789.140152
16.729688764212938,1.3242858603373238,2.968890354206439,-1.6025351065508695,0,0,1762277789.140152
42.84393385634918,1.858965695197902,-0.2668658322458961,0.1562982386685062,0,0,1762277789.140152
-74.4525104343373,-1.159208430759768,-1.6929176504055687,1.9951327765445017,0,0,1762277789.140152
107.02784344722062,-1.0020132948519498,-1.1934705505887881,0.33210219160575,0,0,1762277789.140152
-34.03195629077528,0.5501813774475195,1.2428681606053171,-1.4905358992012068,0,0,1762277789.140152
105.64620890864205,-0.2800420588531914,1.804618167829706,1.9879087457296816,0,0,1762277789.140152
-111.19864251684552,0.0723649922964919,-0.6373446830349101,0.24578070499447083,0,0,1762277789.140152
-44.49547652589893,1.0468790436525055,-1.9853211642183406,-2.785470313896687,0,0,1762277789.140152
44.49989862748133,-0.8935508287201201,0.277318814075385,-1.7918035544872932,0,0,1762277789.140152
-50.93151335734962,-2.1388785465661035,0.3595132325906917,1.2589810330674562,0,0,1762277789.140152
85.73589527776623,-0.5877252434675015,0.4252768329186997,2.0062224399405015,0,0,1762277789.140152
-8.00671555540842,3.720208264949596,4.24566588854016,0.12184173722210379,0,0,1762277789.140152
-56.20976971086669,1.1165941413710447,-2.5038273982244297,-0.7691040274501283,0,0,1762277789.140152
49.23950582771236,-0.3642783330378396,-2.656876612929879,0.6693925303533673,0,0,1762277789.140152
-17.26583501876138,-1.5371482697169954,-1.558629127564869,-0.2366375624775104,0,0,1762277789.140152
-6.287701190590505,-1.2094153769870613,1.2602262474102837,2.7247500289371454,0,0,1762277789.140152
21.391148466008364,0.11972560414924359,1.4483224460206896,-4.107363574100398,0,0,1762277789.140152
-38.92678006247115,-1.749981396728356,1.0509693135559421,-0.931366373045506,0,0,1762277789.140152
77.49489225619763,0.14618857920312936,-1.1524601004214083,-0.08733456311350143,0,0,1762277789.140152
-55.10320828020892,5.160836652998712,1.0468953374184844,0.8302846258501131,0,0,1762277789.140152
-9.424215896457408,0.4835047071762184,3.4793489061964173,4.6032729985386585,0,0,1762277789.140152
-10.993145522603287,-3.686268438685777,-7.256489362431,-1.7874550089949681,0,0,1762277789.140152
8.83331677723422,-0.22879184704175007,1.4827122311839862,-2.2144740765596223,0,0,1762277789.140152
-5.361061880111355,0.13686778829542393,-1.640364665911399,-1.6109748929062884,0,0,1762277789.140152
7.208325824703102,-0.5872173998604567,1.932527524724377,3.0950737858592854,0,0,1762277789.140152
103.94042886334657,0.6894947503689282,3.818255720907615,-0.5843867935830874,0,0,1762277789.140152
-120.21640869611406,1.7359134005673558,-2.8080983561291384,0.8680691323137085,0,0,1762277789.140152
17.312800731946368,-2.1828689398323218,0.879638783059441,-1.3473776392725925,0,0,1762277789.140152
21.952047321788342,0.9653280505396833,4.655582484754136,-2.2752380704031574,0,0,1762277789.140152
-25.505810489342462,0.7947398272680927,-4.07891941211255,1.4300958845875194,0,0,1762277789.140152
44.394145171244375,-2.4045133130977674,-7.229432858989531,2.1446105204277477,0,0,1762277789.140152
-57.60693449684635,1.7707745507067025,1.413791523964288,2.141393808699293,0,0,1762277789.140152
-30.482306555150277,1.8529707226948453,0.6260364669221877,-2.8336252531930417,0,0,1762277789.140152
72.92950819562657,-2.637456266511097,6.882802949928365,-1.8794310248995634,0,0,1762277789.140152
64.10938690103193,-0.13503777586005083,1.954661760355395,0.6049303797641908,0,0,1762277789.140152
-119.94855124608945,-0.46209143522150214,-2.882751597896469,1.5952757832681688,0,0,1762277789.140152
48.35444774750706,1.776583292207025,-1.2018409286869645,-1.6026107630028865,0,0,1762277789.140152
-5.183981871288301,0.2402478056559651,-2.0640937426898565,-0.07497813846984382,0,0,1762277789.140152
-20.888725948144906,-3.7672644486457805,-2.985772719707433,1.1809892706151743,0,0,1762277789.140152
36.95893774331622,1.9430104096878316,2.488437166557605,-0.748455495270718,0,0,1762277789.140152
8.248582451927062,2.820139303577432,2.80531157463375,1.4900447539073545,0,0,1762277789.140152
-26.434228822718527,1.0437972466761507,0.5071969793682428,0.9059593750528865,0,0,1762277789.140152
-50.08484882301851,-2.95175886283499,-0.843073029080134,-1.2413546639711541,0,0,1762277789.140152
19.93832136269299,-1.159042679559923,-3.048382270977703,-1.3963101420923834,0,0,1762277789.140152
28.392644963985784,0.4554750397530749,1.6298757628108775,0.08433515413310351,0,0,1762277789.140152
85.34009190423734,-0.2616070501700659,0.9661811161321595,-0.7641567333504038,0,0,1762277789.140152
-121.53699412155632,1.0387369771927053,1.8166773826981237,0.8827824578170811,0,0,1762277789.140152
23.02785133850762,0.29783323056793276,0.49370234636025145,0.9163860685839335,0,0,1762277789.140152
69.63854120275653,-1.0249622295281189,-5.50738850964363,1.1063156911524208,0,0,1762277789.140152
-27.206141126824324,0.565215397060262,-0.35248648435411123,-0.5168887437515948,0,0,1762277789.140152
-80.14398778235395,0.2480026806669208,3.457295814630375,-1.4098218248683045,0,0,1762277789.140152
-12.694367325882416,1.4253069078318947,-0.9351577888553021,-1.229686754705538,0,0,1762277789.140152
89.25798203433932,-1.218686392985623,3.059511548086599,0.2344550967326112,0,0,1762277789.140152
13.83575269652279,-0.49711222640406133,0.929980413277798,4.948021009389965,0,0,1762277789.140152
-23.67956748574907,-0.9163930906964215,-6.827038946974202,-3.175740971719048,0,0,1762277789.140152
-71.17186634755784,0.3622174052601564,1.9071222402760568,-0.663981328413532,0,0,1762277789.140152
30.609293918868644,0.6720605486721917,0.3199088243171951,-0.002010387835263493,0,0,1762277789.140152
111.8196674550594,-1.4075303319405958,3.7955689107552555,-2.106875768001808,0,0,1762277789.140152
-11.626291937731365,2.713010106158134,0.2613300506335683,2.641618033485148,0,0,1762277789.140152
-125.94021690741918,-0.19794180442221787,-5.02917094542331,1.229655126340547,0,0,1762277789.140152
1.6326803284329514,0.6136289867289917,2.029253451926128,-0.6283023883650108,0,0,1762277789.140152
-9.694690387414155,-3.036394722370676,-2.453515617721656,-0.812961021378273,0,0,1762277789.140152
96.43350264695712,0.0999617545060355,1.3923540095382527,-0.5887382823567762,0,0,1762277789.140152
-27.059020213085887,-0.5085819119047456,2.5808126227459702,0.5674480878978261,0,0,1762277789.140152
0.011854834865988135,3.27343996646492,1.8192671122253732,-0.10005859319008317,0,0,1762277789.140152
-0.403266859662015,2.003065585558705,-1.4014053266632696,-1.3427870849500505,0,0,1762277789.140152
-11.489238134770279,-5.975203355926162,-1.2102851248231117,3.3625414605856725,0,0,1762277789.140152
109.4832906448219,1.1470023696930123,-3.991262424399642,0.8361494580544377,0,0,1762277789.140152
-152.03168151205895,0.011884215629442479,0.8518026169890272,-3.7484992597742797,0,0,1762277789.140152
-35.90376394772643,-0.15271889956148255,2.2497640036772726,-2.3181865230117227,0,0,1762277789.140152
61.81140431039561,4.27254855290425,2.473389216570138,2.0614811868743437,0,0,1762277789.140152
-2.235470527400859,-0.15930216498655,-1.9239116557737954,2.642894552253329,0,0,1762277789.140152
30.625957341991363,-2.2466640423179536,-0.7899957002316123,0.9351280353558206,0,0,1762277789.140152
82.64383940126554,-1.6271223614853305,0.8738323079157566,-1.6777168191114231,0,0,1762277789.140152
-44.65452432662693,-0.07545791936926287,0.37867618636176564,-1.0468075531759529,0,0,1762277789.140152
-87.9468432744689,0.5965122048568913,1.6300013495385486,0.018883432877265155,0,0,1762277789.140152
-2.831596014791057,-1.598163064939515,-6.510880779026507,-0.6465331745302538,0,0,1762277789.140152
-52.674228991536054,2.695143814737656,4.243214863925722,0.8142230033841849,0,0,1762277789.140152
146.15947835937354,1.131111137316493,2.2611550909315925,1.5357300048913354,0,0,1762277789.140152
100.84058547468003,0.6246117871428066,-0.5512357083592291,-1.6144821713867756,0,0,1762277789.140152
-192.78874244299618,-1.9057358040577674,-3.340600987557411,0.13171666714069505,0,0,1762277789.140152
-25.86599522484638,-1.153645674206918,-0.3292594081681903,0.055710903301444396,0,0,1762277789.140152
30.072172184032404,-1.1970320608323506,1.5671837530611155,-1.4788249227751342,0,0,1762277789.140152
37.206699279298725,1.423006742775059,-1.2041049749031214,3.427355763542805,0,0,1762277789.140152
47.93582343200712,2.2424715758454323,1.6978287137740824,-1.4617470800732157,0,0,1762277789.140152
-6.274497760455414,-0.38772939736279843,2.5670614460361603,0.22023639366642594,0,0,1762277789.140152
-55.1403718579568,-1.1766114554589895,-2.006231950532716,1.0020603470363534,0,0,1762277789.140152
-16.462677227128328,-1.97504653385503,0.3326981736299831,-3.2584562806985744,0,0,1762277789.140152
27.396939126931116,2.024905600512522,1.4031802193066838,0.012489287619713543,0,0,1762277789.140152
19.78384493029849,0.6644297260671309,-4.783675386760949,1.5734445941498139,0,0,1762277789.140152
20.488767566855326,-1.0402700225663049,-4.108918150111503,0.16840749665609053,0,0,1762277789.140152
-97.42047743098999,-1.6794362569112433,4.93848420344701,0.006642865470706671,0,0,1762277789.140152
4.629926642030246,4.228326708818762,5.003643848103798,0.9798321460194566,0,0,1762277789.140152
61.48934717964307,-0.44864824608245324,0.04948395367688314,-0.521658532463724,0,0,1762277789.140152
110.45086486087928,-2.4883139951726223,-0.7389143697337577,-0.37474664726023,0,0,1762277789.140152
-48.48540608492906,-0.8175914233841568,-4.495065190671477,0.16877629479045145,0,0,1762277789.140152
-173.10834947351526,0.511936498756746,0.3323663892287691,-0.05508723640170482,0,0,1762277789.140152
44.89797310210623,1.602063880593366,0.44076051913788294,-1.5345709530856544,0,0,1762277789.140152
98.17115020947435,-0.5012097365972745,-1.0814729597423136,-0.8604821179482918,0,0,1762277789.140152
-8.906386951729676,0.34316109486053176,-1.8987392245473615,2.8583330833664236,0,0,1762277789.140152
-47.62954469055727,-0.5988997591735955,8.98417227651777,0.4865208090529262,0,0,1762277789.140152
11.80811177532862,1.1426752096675896,-2.1310931921379184,0.3507980068237754,0,0,1762277789.140152
-45.8412791828612,-1.0372374139596594,-4.602300207489389,-1.714858778386362,0,0,1762277789.140152
76.72388365351577,-0.5703695829935154,1.180873467295524,-0.7410768227081213,0,0,1762277789.140152
112.2461610552788,-1.242139628244092,0.7713368805534503,0.2053459952141196,0,0,1762277789.140152
-187.89255542252826,1.5390021957703048,-1.452402378771557,-0.15770954084478314,0,0,1762277789.140152
34.380401928925735,1.6320824670816743,-0.7080396647211603,1.3098250885299343,0,0,1762277789.140152
-19.707790826022904,0.7487054970142345,4.382157116069312,0.8264019276482728,0,0,1762277789.140152
-35.23081572619259,-2.563631785325298,-1.0294488403498196,0.5772856222251703,0,0,1762277789.140152
155.14360865021624,-0.5603765421224366,-0.023912768126834044,-4.220845571045776,0,0,1762277789.140152
-78.0599104583196,1.3553737049501502,-5.537764528540336,1.472794402406242,0,0,1762277789.140152
23.471832445653767,-1.5577832821926263,1.2883058955260045,1.669991213835038,0,0,1762277789.140152
-52.225753450279626,2.187534985450882,3.7056401138122843,-0.5882348887074255,0,0,1762277789.140152
-1.4890951443088,-1.66943189226782,1.8029178452004635,-1.1053298998928345,0,0,1762277789.140152
28.96540976147719,1.45909108380998,-3.8097608035584094,0.77496460433286,0,0,1762277789.140152
-3.0264733278450797,-1.88398541183978,3.65059728756537,0.7363713449161364,0,0,1762277789.140152
38.52462623879183,0.7553900793225602,-1.389429619277801,-0.7880699208598013,0,0,1762277789.140152
-30.567823574419663,3.3340658589617442,-3.4094769610590117,2.10935953145276,0,0,1762277789.140152
-4.5006709459438525,-2.576200778122042,1.5191130898081202,-2.548702171404818,0,0,1762277789.140152
-49.43987756281412,-0.3375935828834141,-1.243927356763505,0.9061754219650416,0,0,1762277789.140152
26.988607011349135,-1.6870761345805387,2.9419904175475087,-0.3754158796980281,0,0,1762277789.140152
-2.7833227140884906,-1.5240259669176075,-1.7170954691277982,-0.8953564368946983,0,0,1762277789.140152
66.95088388175547,2.9910934258200554,3.8150178950275158,0.507703670789474,0,0,1762277789.140152
-25.38854013726781,3.15365127284776,-4.519128831662404,-1.1484420590892745,0,0,1762277789.140152
-23.100847354084692,-0.48351249589175466,-0.8563273070534578,2.3729883463483636,0,0,1762277789.140152
-0.9670493115729091,-3.8227073679012724,2.2448883955213357,1.6830096532227823,0,0,1762277789.140152
-12.210412875366522,0.13765532888632168,4.328508527930155,-1.721400510121165,0,0,1762277789.140152
55.08941030863589,2.922099049733562,-1.4872479746977656,-3.0099992012402756,0,0,1762277789.140152
-47.59763480738251,-2.2089833297122183,-7.680435661635459,1.6345220505490832,0,0,1762277789.140152
-0.5769917791692734,-0.1631820320629486,3.1291281217716937,0.9233705324770151,0,0,1762277789.140152
-24.113829529947527,-2.0218044325297346,2.818258711869879,0.6747639453769372,0,0,1762277789.140152
2.8857961710921574,1.6586675441717074,-0.05321314910164713,1.306698872893641,0,0,1762277789.140152
35.82320539480397,5.229019051936263,-4.344859091841809,-2.051784303924498,0,0,1762277789.140152
103.66738164635413,-3.254231769913956,3.722593120679198,-1.3959714699086851,0,0,1762277789.140152
-136.43181061510185,-1.765975458479978,1.1074015427064912,-1.040292053278417,0,0,1762277789.140152
-28.17136714784202,0.9948674275524497,1.7802069237138363,1.559226094468147,0,0,1762277789.140152
56.73316193111102,-2.149309542396893,-2.641922289510989,1.3616065615083213,0,0,1762277789.140152
-23.862739289243574,2.698264215887446,-5.1774588585541474,-1.1504038335190818,0,0,1762277789.140152
109.02133155193532,-1.0898755952697037,6.134254461135875,1.175879254415109,0,0,1762277789.140152
-70.24844966442654,0.6370138751143839,0.6156155981072202,1.3689114772750322,0,0,1762277789.140152
-39.771820971971756,0.01826647168952169,-5.501553805376454,-1.7639593287817266,0,0,1762277789.140152
-28.883074866670732,-1.104908656461678,2.5790321570804893,0.45736131924202905,0,0,1762277789.140152
63.1978193218817,1.1458465208187605,0.5602957507196524,-1.0663506829837153,0,0,1762277789.140152
-44.69063761116184,-0.8672740153779966,-1.5900617650234545,-1.4569432680109093,0,0,1762277789.140152
-5.397879978638157,3.277680746952949,4.936669376389637,-0.9506549398934788,0,0,1762277789.140152
80.45800329288862,-2.1282459710187425,1.1899907729261552,1.417747594748688,0,0,1762277789.140152
-34.73051155330955,-1.4841310594243333,-1.758241007918434,3.089040161451512,0,0,1762277789.140152
75.03980100735167,-0.9842518782538744,-8.001922084208342,0.4145657355530303,0,0,1762277789.140152
-47.12805322799372,-0.06314731243130746,-1.0659531897034777,1.4827055612873254,0,0,1762277789.140152
-20.031004299114958,0.1857105609715903,4.403795746714004,-3.463344353483229,0,0,1762277789.140152
-17.283713853655556,3.393187992770402,5.707676615685808,-0.4870281325737363,0,0,1762277789.140152
-85.71464205215989,0.7150661206652016,-0.21027239290206107,-3.347079759457609,0,0,1762277789.140152
-7.842162897829254,-0.37278299204641846,-0.6324339620478657,-0.24684605027172443,0,0,1762277789.140152
1.6040776565548422,0.22344912413070087,0.3833980180320049,0.08153318203506352,0,1,1762277800.1709702
-27.346859575461536,0.4394235967448469,11.026805412473346,-1.8486930375573352,0,1,1762277800.1709702
41.27138831037445,-1.2156442095214537,3.211405173850407,-1.1030334778583697,0,1,1762277800.1709702
-14.657210352552006,-1.7526379358844701,-1.304315636718325,3.5587690798662126,0,1,1762277800.1709702
-4.854870541992559,0.8456788085898957,-10.06987936463872,-2.241514556900883,0,1,1762277800.1709702
-21.75622856487359,0.3471416740811573,0.5640370195464542,-1.0849879464163275,0,1,1762277800.1709702
62.62720263434932,1.7791937680633922,3.637766597442701,-0.5063842492726321,0,1,1762277800.1709702
-81.68367922431565,2.194775806829249,-0.1993343575429715,1.3548555359884247,0,1,1762277800.1709702
17.693693226939214,-1.0404099017622002,0.23479173261204495,4.455629796370985,0,1,1762277800.1709702
115.85712594844584,-4.445749959277425,1.6534552260240716,-2.5230584186255527,0,1,1762277800.1709702
-77.09987994274175,-0.9526783208474788,0.6616208989433934,-1.3720561116490584,0,1,1762277800.1709702
-31.637251714808947,3.5459530180952807,0.2936960173171036,-3.3071468767509526,0,1,1762277800.1709702
-46.46036661263124,0.4039314877605569,-2.6504061678517625,1.872947518817074,0,1,1762277800.1709702
26.00870867148993,-0.9265213841722648,-0.6960462272961857,2.50046722147005,0,1,1762277800.1709702
66.55468246357768,-0.8624365098499533,2.250831201295788,-1.2403303530723129,0,1,1762277800.1709702
0.7130341664234622,0.3821372273636788,-1.3600799338286091,1.439715986916185,0,1,1762277800.1709702
-3.3811266759199547,3.541997844837513,-0.5290476825485724,0.34798979210997966,0,1,1762277800.1709702
-23.378612628154062,-1.0298734065681083,0.03644788954111771,-2.7315410399520705,0,1,1762277800.1709702
-19.360752777552545,-1.2347443651604189,-0.31037267870961804,0.977839367381293,0,1,1762277800.1709702
-13.381296830346315,-1.2892744339615982,0.3814085427927321,-1.4264329788568293,0,1,1762277800.1709702
20.07194918713629,-1.538385196930184,1.4194039283303121,1.2233316730317643,0,1,1762277800.1709702
31.749829954535148,-0.10344851793331535,0.9800618431918042,0.9669014741547988,0,1,1762277800.1709702
-11.67257296320533,1.8744655826958685,0.38639391865136646,-0.4164689298702017,0,1,1762277800.1709702
44.676734388655746,1.3496676142605764,-0.792368525085565,0.03952853828889442,0,1,1762277800.1709702
-86.54674846575664,-0.34089752891001684,-0.9593550893251358,-2.0493121972403667,0,1,1762277800.1709702
-39.60613662032267,2.269569221466209,-3.209153113536362,4.3644958324878775,0,1,1762277800.1709702
61.23508361681588,-3.1940334545051856,-0.8664525800981336,-3.2154149927513584,0,1,1762277800.1709702
14.34719953847572,0.9494564859740277,2.844301537338761,0.5953891012964092,0,1,1762277800.1709702
69.54600846470878,-0.9280907610821957,5.608109307523434,0.06275162510996374,0,1,1762277800.1709702
-38.130335240512316,-0.9374102344349228,-1.9319077760580847,0.6030024760518641,0,1,1762277800.1709702
-65.88808487806507,-0.4468578392882005,-5.902793060627275,-0.9878120378374929,0,1,1762277800.1709702
19.392709382596884,1.5728192304788724,2.196449128684001,-1.617322585063095,0,1,1762277800.1709702
-16.008609985561627,2.0702408005660904,2.7110006024733053,1.3274189115398047,0,1,1762277800.1709702
-6.510083160545477,-1.4592670513951134,-3.042741620108057,0.9602360781586766,0,1,1762277800.1709702
15.452429415673636,-0.3478003931221502,2.488146430481444,1.2750012841383045,0,1,1762277800.1709702
53.12339086618956,-2.4648607130851143,0.6931504459856296,-2.1776739446474,0,1,1762277800.1709702
48.557027036729856,2.817824789230449,-2.6358782121141773,3.116381758919286,0,1,1762277800.1709702
-94.02334342919329,0.21045964901255304,-1.1726014286766233,-2.6103914872400282,0,1,1762277800.1709702
-42.39093797108867,1.5916120474611077,0.6707604116197596,-1.7917622117760421,0,1,1762277800.1709702
17.882248242758745,-1.7435290134151258,1.3035058493965281,0.7821756939996756,0,1,1762277800.1709702
39.41996246612381,-0.9351963288116278,-1.700705759252719,1.2180993164031704,0,1,1762277800.1709702
-8.501405341458193,-1.524789720030729,3.6615595611048315,-0.12806199028909923,0,1,1762277800.1709702
28.993338365471224,-0.9430213159279668,1.4303403700612498,-0.03529859148468141,0,1,1762277800.1709702
22.120378537296325,3.3054640014840424,-2.100038947652522,0.19188643117436333,0,1,1762277800.1709702
-4.610895217608944,0.15664988664090795,-1.2078331674443272,0.18098517927765415,0,1,1762277800.1709702
-80.22117772280932,2.232939415307534,-1.741950207140259,0.06719152159138646,0,1,1762277800.1709702
-17.99064890016943,-1.1377453221341285,-1.3306135589341144,-1.0197479263150773,0,1,1762277800.1709702
5.07864500903788,-1.206209524481948,0.8749151750256942,2.590152796641461,0,1,1762277800.1709702
30.785077064995676,-2.180866918827341,1.608069318676839,-2.1078919567156165,0,1,1762277800.1709702
41.74419836629024,-2.2989524254263842,2.956875322123167,-2.2218727499015665,0,1,1762277800.1709702
-11.857857214252068,3.9764014908542515,-2.20896296520178,1.0825093641770664,0,1,1762277800.1709702
155.28067251562567,2.600047368054938,2.3098335113225614,3.1641890267799186,0,1,1762277800.1709702
-134.3155363977188,-1.7745915826952727,-1.3597070114397634,-1.330576391126791,0,1,1762277800.1709702
-130.7511644269326,0.7315788877808175,-0.5515168919370809,0.0995272699244085,0,1,1762277800.1709702
-7.136323744709609,-2.750583909718048,-3.4950220059056085,-1.3075850887561609,0,1,1762277800.1709702
60.58129007688244,-0.25053441098030504,-2.402628553202747,-0.20560121944899684,0,1,1762277800.1709702
33.680154850356715,0.9436384939262866,7.106366380047021,0.4837518346880282,0,1,1762277800.1709702
105.47412642470618,-0.08515163214514537,1.4220963763118049,-1.6118874389960636,0,1,1762277800.1709702
42.620669720940114,2.317728315207885,-2.4190164755589247,3.774773767077595,0,1,1762277800.1709702
-151.65244203972432,-0.6470383858624361,-0.29703963730767,-0.6684646443818203,0,1,1762277800.1709702
-30.020888145037578,0.7982630508974213,-1.4147427134637949,0.09787983138621335,0,1,1762277800.1709702
-26.062027471845926,-4.479380559562987,-3.5660638962817464,-0.39837181973462016,0,1,1762277800.1709702
39.450212548304705,0.3056281486101658,3.4987398866453883,-2.451694819640152,0,1,1762277800.1709702
-42.4447459389483,4.108118683227944,3.727691628724199,0.31195385734628567,0,1,1762277800.1709702
77.34719949832846,-2.072581776931539,1.7462991636686602,1.9627716653362803,0,1,1762277800.1709702
185.7683900212745,1.0001494287728443,-4.21280060986365,-2.3707280765886756,0,1,1762277800.1709702
-82.2600501278071,0.45268325198276343,-0.3141655010696492,0.21451238926034502,0,1,1762277800.1709702
-165.10435711926402,-1.7878837078640082,-6.950207071484083,2.25623218516455,0,1,1762277800.1709702
-40.533078726234535,0.43747018196366505,5.241182802970668,0.6410542784159277,0,1,1762277800.1709702
41.74020691776398,-0.17935148989852348,3.0124495634102906,1.6264642769970892,0,1,1762277800.1709702
48.85872497479525,-0.8176195714140497,0.9790986791397742,-1.3728454187472348,0,1,1762277800.1709702
-27.94202508390735,1.2395639830277054,4.324961153816086,-2.6390178965504103,0,1,1762277800.1709702
-1.135755332142924,0.3423454994091061,-7.846461006290815,-2.055315084321657,0,1,1762277800.1709702
167.37693630284437,1.540858757380267,-2.1850805473943833,0.5566462018019461,0,1,1762277800.1709702
54.30928092201601,-2.880270323081055,-0.6956474608989015,2.4344601311448755,0,1,1762277800.1709702
-245.30561633088863,0.3609340962476921,3.3313399045099303,1.4269405621646591,0,1,1762277800.1709702
-38.84689895956928,1.6170466112962107,3.332762445935685,0.22882480854822787,0,1,1762277800.1709702
23.873497360701116,-2.0085338839906366,-0.4243144907530013,-1.3573149617504014,0,1,1762277800.1709702
53.491818435380424,1.2836654952092972,-3.8343996024790408,-1.4351936937552376,0,1,1762277800.1709702
69.16229579914958,-0.2027979950838999,2.4345200799068496,1.290495237600985,0,1,1762277800.1709702
-37.42560415951071,0.048528457768201,-0.8358550040145956,1.4214738024451532,0,1,1762277800.1709702
59.84367298518037,1.0816332781012508,2.181795197491873,-1.8067973379015203,0,1,1762277800.1709702
-32.51710450030373,-2.042101369703351,-0.9906925371246922,-0.6317884578046848,0,1,1762277800.1709702
-87.76249409218256,-2.8966634268366187,-3.727220617946683,1.0116067870321659,0,1,1762277800.1709702
-21.127657858165783,3.8571468290384057,0.11986435525697609,-0.056880321294162636,0,1,1762277800.1709702
33.627594077114786,2.4023166598736845,1.5318578889664851,0.21751119601646693,0,1,1762277800.1709702
93.58116991171701,-0.9034797054209803,0.5641030549866304,-1.6368808933306267,0,1,1762277800.1709702
58.59776694126953,-1.8141356323865718,2.7233724384811873,0.8098511443037344,0,1,1762277800.1709702
-129.4279506102765,0.7736974859797937,-0.8266995799993851,2.3603035923248274,0,1,1762277800.1709702
-28.416822135107424,-1.6875998599613928,-1.6752641802771409,-1.4145197817553203,0,1,1762277800.1709702
32.27455622380929,-0.02221483348229199,3.7523272727077015,-2.5544675495220996,0,1,1762277800.1709702
-2.478792795342401,0.4617202845613183,-4.10882470003482,3.0272904034493338,0,1,1762277800.1709702
-9.300627953005165,-0.6783617442479188,-2.9906252726764935,0.06798313778221747,0,1,1762277800.1709702
16.77883217136047,2.6384248594260495,1.975184946942773,0.2897913233699701,0,1,1762277800.1709702
27.283785395868744,-0.2041974921974221,-0.05494819587711262,-1.5295093273138847,0,1,1762277800.1709702
-40.10047892191924,0.5761940855515173,-1.079392198442589,-0.5151774019974942,0,1,1762277800.1709702
100.75582703532697,-1.2381697932222366,7.367544853012723,1.3353268611984959,0,1,1762277800.1709702
-17.91872837948666,-3.040761429526941,-3.069409926830719,-1.8472945985763247,0,1,1762277800.1709702
-99.93021576737767,0.9353906250560037,1.3223353799656843,0.592565939131747,0,1,1762277800.1709702
-24.912761050229058,3.0279449390808915,-2.0832633414671937,-0.8751088534436019,0,1,1762277800.1709702
-12.767571788262304,-1.7533616361574194,-4.169256952751938,2.4626483128050203,0,1,1762277800.1709702
95.79296506307448,1.0290372316416105,1.875936431816298,0.7212016777895602,0,1,1762277800.1709702
28.46522020598862,0.2006882568061794,0.3106048657387461,0.8897194406786227,0,1,1762277800.1709702
6.805634499698623,0.27470913653793944,1.901005859712914,-1.6601015681404954,0,1,1762277800.1709702
-60.648372486714116,-2.0239920804733873,-2.469021513745047,-2.428141747181645,0,1,1762277800.1709702
-14.249564697162672,-1.1992133566217988,1.5070270901499843,-0.33231545656936906,0,1,1762277800.1709702
-23.722053780442177,1.921639907106515,0.7848308610925273,2.339033621701123,0,1,1762277800.1709702
16.468471745670097,0.47090959913292113,1.5156503163066795,-1.4429282967834067,0,1,1762277800.1709702
23.710045376633158,0.957851926792984,-0.03179313114989468,1.2407297976260403,0,1,1762277800.1709702
20.24273940616952,0.13701698044898747,-0.5407214871646933,1.9468272759444947,0,1,1762277800.1709702
125.85262359232266,-0.4113985790197344,-2.41117119139884,-3.9204634117618498,0,1,1762277800.1709702
-150.79717702593337,-2.6903101718454265,-0.14075951952373777,3.5340712574089745,0,1,1762277800.1709702
-98.69957718556896,-1.017847722929951,-3.036276167710948,-2.698943024730543,0,1,1762277800.1709702
39.05851939723394,0.4868850436046771,0.9992342248064555,1.1568188008187157,0,1,1762277800.1709702
40.881131061884176,5.02150120054577,3.4667525740599556,1.628695498551445,0,1,1762277800.1709702
86.51786595229326,-0.23922489946790795,2.8083803247651646,-3.3581352805173093,0,1,1762277800.1709702
26.044801228887582,-1.9633016585419734,0.6045269552916417,0.9399858651902554,0,1,1762277800.1709702
-85.70469062681443,-0.08253287736357336,-2.518663476223282,-0.5222420099951188,0,1,1762277800.1709702
-18.835269372554734,-1.4828085424944963,-2.426356555147136,0.731453945313423,0,1,1762277800.1709702
-2.8193671632617665,-0.6585779170342483,-2.7090378083577518,1.5827956723112997,0,1,1762277800.1709702
14.561942100882066,0.21387860559070357,4.573958160906514,-0.19101373818319253,0,1,1762277800.1709702
-3.6278842703448,1.7754020059067988,-0.07828496908626578,-1.2146282232663301,0,1,1762277800.1709702
0.6972423621624525,0.5967875634879921,-0.4804091250160457,1.603279250340335,0,1,1762277800.1709702
-19.690581414083905,-0.589569372699057,-2.245048467017669,-0.8677564204169461,0,1,1762277800.1709702
17.44990831993262,-0.5940435901241496,0.6875689872843,-1.144066554471855,0,1,1762277800.1709702
104.92432729281549,1.849774813146512,4.175879807293168,-1.4005545860543571,0,1,1762277800.1709702
-57.64717110066431,-1.2074636444515012,-1.2991370283898813,-0.005726893865942728,0,1,1762277800.1709702
-111.88467298623198,-2.2564483718864508,-3.2822436893841833,2.127529337728258,0,1,1762277800.1709702
58.84015763826861,0.030290974062347324,2.9225044078342224,1.0585709338812035,0,1,1762277800.1709702
41.660718459493296,2.572307286922928,-0.8288328022694547,0.7162924101518022,0,1,1762277800.1709702
-45.79034324566796,1.470803814531318,-0.6373191529812574,-1.2469680970745782,0,1,1762277800.1709702
46.40645102516847,-1.9083175345833072,-0.2934482232906865,1.402343254039244,0,1,1762277800.1709702
-26.10033019946895,-0.9632836067121539,-1.4035853494909505,-2.77201596700376,0,1,1762277800.1709702
37.28211417661474,0.26060197079226116,4.178902289498526,-2.8923711389396014,0,1,1762277800.1709702
-66.33014201378624,-0.2120980468873449,-2.860004762554223,2.148346341493381,0,1,1762277800.1709702
-4.039236169709899,-1.1386246276302743,1.3633871976356542,2.0245113293359593,0,1,1762277800.1709702
-9.29906324839786,2.669476435574032,-4.191449928423877,2.095198330678137,0,1,1762277800.1709702
77.49463025664421,1.0606766406566557,3.855173453147087,-2.548041296371587,0,1,1762277800.1709702
74.77542270003315,-1.381695700234933,3.9042218437015244,-1.7937586296090546,0,1,1762277800.1709702
-144.66164129155874,0.03656032037116711,-2.31164233352574,3.061273669992021,0,1,1762277800.1709702
-6.894795193010819,-2.194305878640724,-0.7039581922371776,-0.01736914692088414,0,1,1762277800.1709702
50.85287865757545,-0.5688203834374089,-6.218786344794665,-0.8198100931171722,0,1,1762277800.1709702
-21.50282759774575,2.2207988215132657,3.337320417049312,-1.4834721479912205,0,1,1762277800.1709702
-34.79482550870703,-0.2567622021917667,-1.074629151701255,-0.7018478850707848,0,1,1762277800.1709702
91.26502416790099,1.0047153727797171,4.792225550621913,0.1034437915264904,0,1,1762277800.1709702
-11.779218902688749,2.330333009346881,1.1830505370202462,0.8046702498391233,0,1,1762277800.1709702
7.715609391043352,-4.130545387986545,-1.450948409455449,2.0273091402894576,0,1,1762277800.1709702
-53.961291563040156,0.42290177974098747,-1.4393610743991962,0.6948866540028541,0,1,1762277800.1709702
-32.07364695009238,0.6836023813508593,-3.5003882937942703,0.46461815433100484,0,1,1762277800.1709702
47.543435574732875,-3.508451290997243,2.3532687270332544,-2.07736364504016,0,1,1762277800.1709702
-17.473679757613155,2.7245651210946216,1.9954269170046692,-2.1299956505034228,0,1,1762277800.1709702
1.2230415234445053,2.4747103415429432,-0.27715504645078154,0.7725515439644765,0,1,1762277800.1709702
8.85504834366142,0.16804657157670944,-2.170997797003778,-1.1181618493187722,0,1,1762277800.1709702
68.35017057492084,0.257236507883997,2.062679597139507,0.4346997537271397,0,1,1762277800.1709702
-16.740590633427164,-2.7853729816959873,-1.4880463665144217,2.542613579675167,0,1,1762277800.1709702
-48.31737600572859,-1.6323226623371885,-0.16902134016256823,0.26606685234743954,0,1,1762277800.1709702
-23.45432648691153,-0.8446039349671017,-1.4620002498023965,1.9220352739286841,0,1,1762277800.1709702
-11.451358779446176,2.5061235024719086,2.8406026807855604,-0.4906994715448356,0,1,1762277800.1709702
18.457475193174993,2.090113653612765,0.13175425028299953,-2.281014275835087,0,1,1762277800.1709702
1.1590140945754928,-1.6418231042971934,3.310219717203328,-4.029222112802588,0,1,1762277800.1709702
9.883835264232385,3.1110737795828465,-0.2351532696725109,1.2722547059996037,0,1,1762277800.1709702
59.587826581692255,-2.4590818119720796,-3.708301881785279,2.1459454648846195,0,1,1762277800.1709702
52.27717003046127,-0.9354236895818838,-2.6554329748925625,-0.34760342306761827,0,1,1762277800.1709702
-121.83819378612681,-0.07834031454653531,-6.2565549752162415,2.312525401815697,0,1,1762277800.1709702
-31.00182769056637,-1.7800197308268093,9.219174851243352,0.74988664623868,0,1,1762277800.1709702
-23.259910766053085,-0.4545430319236345,1.1201747531215782,-0.48440222085022566,0,1,1762277800.1709702
46.59197924651167,2.9423153999918004,0.7487202520422997,-3.4833430148648743,0,1,1762277800.1709702
100.69674450756438,2.7204891769098976,0.6840700092152292,-0.6584224729727833,0,1,1762277800.1709702
-47.672740139742565,-2.688022958486229,-3.022649533880503,0.4666341203392008,0,1,1762277800.1709702
4.337681570675271,1.4812678684080984,2.4754369180400864,4.501411334122077,0,1,1762277800.1709702
-84.7067209576609,-2.47259578021734,-3.0776994000543616,0.1842140104972818,0,1,1762277800.1709702
9.159780034823855,-0.9172524930346948,-0.671399313816446,-5.59177403931352,0,1,1762277800.1709702
50.345674367868554,1.2471048869714283,-0.5222172288710828,2.707748793604226,0,1,1762277800.1709702
25.44972950456605,-1.0621651660081055,-2.0614467626287474,0.4975542356479014,0,1,1762277800.1709702
23.583504762992572,2.382264465398965,4.545383019401131,-1.2463745845595462,0,1,1762277800.1709702
-32.250320556296955,0.2533049681988938,3.9001391489616775,0.11437315583381168,0,1,1762277800.1709702
-51.43818735417642,-2.627011357273039,-2.950472699369555,-1.2143880253876536,0,1,1762277800.1709702
-7.014332105005225,0.8204038850048646,0.21982522599352,2.2475288430925318,0,1,1762277800.1709702
-15.96206563397778,1.9533347016424405,-3.0407845796809005,2.132566252807174,0,1,1762277800.1709702
41.872220743960376,-0.1048694333968626,-2.675337661647792,-1.4634664829480126,0,1,1762277800.1709702
62.66457505694038,-0.814901422091284,2.702057809355611,-1.28943568941892,0,1,1762277800.1709702
-40.832950825282424,-2.275195871635451,0.8387806741612185,0.02157598299482817,0,1,1762277800.1709702
-2.2987014935227,-0.4181842509917876,1.2197052504580903,0.8274719280373374,0,1,1762277800.1709702
-6.835721705329678,3.0750372460319273,1.2207677174947853,-1.4134515374625292,0,1,1762277800.1709702
5.7254302076035035,1.3737171929985494,1.3527909891613263,-0.9953338725319875,0,1,1762277800.1709702
8.15295921266221,-2.0335433547518713,-4.999318895816701,-0.39157130628599035,0,1,1762277800.1709702
-51.10297310811404,-1.1337414335780758,1.8208454855941685,2.086649324246187,0,1,1762277800.1709702
-10.319222069774849,0.46501906143853705,0.46963804695616546,2.7780954856424125,0,1,1762277800.1709702
70.43934063691961,-0.6070985813004773,-2.570600982239845,-1.2198016076327591,0,1,1762277800.1709702
-2.277901334763745,2.2928252199697696,2.234194089379265,-0.4324853793770706,0,1,1762277800.1709702
-3.0235707670222784,-0.7990225830920423,-2.6887379791584536,-2.048532060710267,0,1,1762277800.1709702
-33.68458218999044,-0.4038744902765487,0.3262432942213495,-0.47636401225055375,0,1,1762277800.1709702
15.568327541073128,0.6032434599409222,2.9183043337071317,0.9074312232094012,0,1,1762277800.1709702
-6.640020934347295,-2.4280022730464075,2.138875958374094,1.9520198433241407,0,1,1762277800.1709702
-15.505005845116738,1.0402510647737946,-1.68813568794087,-1.1608557303416225,0,1,1762277800.1709702
-7.5177224023204925,0.8375934421673952,-3.3312375266024965,-0.9846743226922331,0,1,1762277800.1709702
19.41780693078936,2.376317768735651,3.916403589760729,0.22439915351773834,0,1,1762277800.1709702
91.7744352868312,-2.4525542145913803,2.3870552344941394,-0.3020324688505907,0,1,1762277800.1709702
-98.19461525994188,-1.0773018365907647,-6.826313000285583,0.9904508597723252,0,1,1762277800.1709702
22.774849500558716,3.7497388698988874,-0.26907317986010326,-0.30821107871907644,0,1,1762277800.1709702
-6.37810267707694,-2.2576819284774774,-2.112518930987239,1.9103035439678655,0,1,1762277800.1709702
-39.626827805355724,-3.9713371973510077,5.378428581662998,-0.15420848243998594,0,1,1762277800.1709702
73.864930873506,-0.05312985048070728,4.589012383606694,-1.9361117584477954,0,1,1762277800.1709702
-71.7618755805193,3.7171459437227825,-6.071088354972524,-0.15138067666280627,0,1,1762277800.1709702
18.019524129917905,3.371479444947195,0.5641633373653137,-0.4373385242202882,0,1,1762277800.1709702
14.031035055792147,-0.965835002272999,0.42502041105221583,0.25731845131188763,0,1,1762277800.1709702
3.3365235538206193,-1.335103631057399,1.2344767708905333,-0.257465802229111,0,1,1762277800.1709702
37.241034736974356,-2.171233959296506,-2.0698376379246977,-0.10810012219364067,0,1,1762277800.1709702
-30.62918119234622,0.7886661610297223,2.9757194672086764,2.2753802758401935,0,1,1762277800.1709702
2.7806018545339724,-2.38630517243981,-0.9330868271366667,0.1672800565190136,0,1,1762277800.1709702
-24.414682584866533,-0.12101573000505207,0.2312204162125361,-0.3866907469343405,0,1,1762277800.1709702
33.25316446150229,4.920870789667916,-4.008812915542575,-0.818095468210722,0,1,1762277800.1709702
13.57452417729079,-0.9462014483223493,-3.373568513011566,0.0537924552559305,0,1,1762277800.1709702
-19.602748149222613,0.47683150749848324,6.2619969774438164,-2.488302301526326,0,1,1762277800.1709702
-51.80301279170237,-3.4409231009335635,-1.6133483128612824,1.3633715633720684,0,1,1762277800.1709702
-29.461640288054927,1.8955781586643168,4.498677077097708,1.5915761222008213,0,1,1762277800.1709702
-2.818698582025811,-1.715109305065326,0.6424601962358385,-0.3358821982481825,0,1,1762277800.1709702
17.53014775740891,2.048564601820608,0.9495329990803171,-0.5051620112039314,0,1,1762277800.1709702
170.39035668343763,1.9725779467744426,-6.596482824367645,1.1259434461409905,0,1,1762277800.1709702
72.30732075824217,-2.642869678866709,-3.7253466415357854,-1.6203968159376267,0,1,1762277800.1709702
-88.45576675466648,0.444564014038969,4.322741213473854,-0.8222718226427094,0,1,1762277800.1709702
-106.11701129649583,-2.9098459344996956,0.5847295389907491,3.9623236268688053,0,1,1762277800.1709702
-104.66068762586892,2.1961562184052,3.6798376395591568,-3.047399984930063,0,1,1762277800.1709702
-87.74802233099425,0.31782854270735783,-2.241314974003017,1.206060421522567,0,1,1762277800.1709702
2.1972757972707315,0.00577594336151499,-1.8274174074878833,-2.615805770290923,0,1,1762277800.1709702
112.421840305072,0.1453332877870985,-1.0698409121312904,1.1480517415149234,0,1,1762277800.1709702
314.407038109054,1.62548302857569,2.1365765199866757,2.1768156892402395,0,1,1762277800.1709702
