ch1,ch2,ch3,ch4,label,trial,timestamp
28.20258556585759,1065.1870856797323,25.595875296741724,30.59986143745482,0,0,1760921571.336492
42.14867250062525,1155.5393287092447,29.687325848266482,40.79108881670982,0,0,1760921571.336492
-29.01788375619799,1166.1307253837585,-17.405494393780828,-18.14973448496312,0,0,1760921571.336492
-8.799984595738351,1115.4438612842932,-7.431181211955845,5.864163130521774,0,0,1760921571.336492
55.8030472388491,1277.5423450637609,43.10608688928187,50.862639397382736,0,0,1760921571.336492
-5.288218537345529,1177.4439227497205,1.372543283738196,8.530711798928678,0,0,1760921571.336492
-38.30779524613172,982.9055467545986,-26.50841088593006,-19.155767573043704,0,0,1760921571.336492
48.97025001980364,1093.1129186488688,41.82704110443592,46.97314344346523,0,0,1760921571.336492
26.347595187835395,1236.9719103444368,19.522277768701315,27.192812577821314,0,0,1760921571.336492
-50.98979599587619,1127.0674703465775,-32.95225850958377,-31.983624421060085,0,0,1760921571.336492
34.17520579509437,965.9488403555006,22.94802612811327,31.81906882300973,0,0,1760921571.336492
43.222023787908256,512.4317421787418,31.85272792261094,39.51952283177525,0,0,1760921571.336492
-33.625440501607955,179.79008051985875,-19.537237368524075,-18.08615618571639,0,0,1760921571.336492
-8.43721430003643,-117.14301636209711,-3.384609459899366,1.3426240840926766,0,0,1760921571.336492
54.984009148553014,295.3716886504553,43.3903192859143,55.320600144565105,0,0,1760921571.336492
-1.290265484713018,255.49313542293385,-1.690434779971838,5.516352434642613,0,0,1760921571.336492
-39.182931835763156,38.91552898893133,-26.452312386594713,-24.451465910300612,0,0,1760921571.336492
52.05192758329213,56.01061168638989,35.229857582598925,49.707010311074555,0,0,1760921571.336492
24.384147711098194,367.83599019190297,21.575482844375074,23.606248520314693,0,0,1760921571.336492
-46.875906044617295,64.63108108425513,-30.64848013687879,-36.000276973471045,0,0,1760921571.336492
28.2362446654588,106.79097328474745,24.10739511437714,34.28366289380938,0,0,1760921571.336492
43.610973383300006,238.28959562676027,34.7212311886251,39.39236623328179,0,0,1760921571.336492
-27.981931468471885,60.84630232909694,-16.268564807251096,-20.831242753192782,0,0,1760921571.336492
-6.754259319975972,18.933243525680155,-2.3112581726163626,2.258899573236704,0,0,1760921571.336492
58.73886870406568,346.7466943417676,42.95275099109858,53.301054168492556,0,0,1760921571.336492
-4.779592143371701,430.20256185298786,-0.2094343975186348,2.617929968982935,0,0,1760921571.336492
-43.35666018631309,804.1084096729755,-22.54411693289876,-24.51130430959165,0,0,1760921571.336492
53.22999606933445,1053.6943731158972,37.686971853487194,51.40492489095777,0,0,1760921571.336492
20.408634058199823,1183.2407676810399,19.64943436719477,28.449418962933123,0,0,1760921571.336492
-50.34653320349753,1048.9035612726584,-32.368834116496146,-36.73329736478627,0,0,1760921571.336492
30.353028040379286,1087.5404677148908,24.859115005470812,33.44966520369053,0,0,1760921571.336492
42.436644797213376,1309.9186589801684,34.89326658658683,41.13515961263329,0,0,1760921571.336492
-31.546056126244366,1010.7528418246657,-22.5665563326329,-20.55449015647173,0,0,1760921571.336492
-7.771512107923627,914.1287865694612,-1.9522277768701315,4.177468250505626,0,0,1760921571.336492
55.301900644786656,1173.3300327984616,41.55402840767056,50.70930349919945,0,0,1760921571.336492
-7.281585213728249,1169.163784247823,-5.299438237212598,0.49366679415106773,0,0,1760921571.336492
-38.25543664675206,1077.648432332091,-24.96757210418582,-26.9011003812775,0,0,1760921571.336492
50.3577529033646,1050.0217913594097,42.75079639349133,53.63016536459327,0,0,1760921571.336492
25.528557097539306,1158.7780820708722,17.31573679484427,24.59358210861683,0,0,1760921571.336492
-50.458730202168226,1024.2501407647505,-30.55498263798654,-29.952858745120466,0,0,1760921571.336492
33.76007690001279,1108.7980590630323,24.9002539049834,32.20801841840148,0,0,1760921571.336492
43.10608688928187,1138.8518951069564,33.38982680439949,43.10608688928187,0,0,1760921571.336492
-31.508657126687467,1020.4017837103456,-16.350842606276274,-19.630734867416322,0,0,1760921571.336492
-4.989026540890336,888.1551813771948,0.6881415918469429,3.0779376635327935,0,0,1760921571.336492
55.369218843989074,1212.4793055346236,41.232397011481225,51.95469018444419,0,0,1760921571.336492
-6.918814918026328,1175.1962428763509,0.927495189011097,2.5506117697805166,0,0,1760921571.336492
-40.095467424951494,871.3854699758813,-23.983978415839374,-22.56281643267721,0,0,1760921571.336492
53.12153897061944,1151.8630070528015,37.3129818579182,49.40781831461936,0,0,1760921571.336492
22.48427853360772,1126.2147731566802,21.848495541140437,26.426133086904883,0,0,1760921571.336492
-48.67105802334845,992.7340038381517,-31.145886830985546,-33.647879901342094,0,0,1760921571.336492
33.79747589956969,1125.7285861624405,26.60938818473369,32.53712961450219,0,0,1760921571.336492
44.68432467058301,1218.818435959518,32.24541741795838,44.456190773285925,0,0,1760921571.336492
-28.277383564971387,881.2849851585925,-20.651727555319667,-19.817729865200818,0,0,1760921571.336492
-4.136329350993037,803.5736039793119,-3.9605540530756116,3.496806458570063,0,0,1760921571.336492
58.63041160535067,1066.166939468123,43.17340508848429,52.75876867491752,0,0,1760921571.336492
-4.398122347891331,1149.1104406854138,-2.82362446654588,3.3098114607855678,0,0,1760921571.336492
-37.12224696017802,920.4716568943113,-23.78202381823212,-25.38644089922309,0,0,1760921571.336492
53.704963363707066,1050.6014758525416,37.7580299526453,46.887125744484365,0,0,1760921571.336492
24.354228511452675,1139.9102867944166,18.030057686381042,25.472458598203957,0,0,1760921571.336492
-46.18402455281466,920.0490481993183,-28.486817962490022,-31.42637932766229,0,0,1760921571.336492
35.29343588184565,834.6446928111836,24.683339707553387,29.676106148399413,0,0,1760921571.336492
43.4651172850281,1267.9869006769732,28.22502496559173,40.009449725970626,0,0,1760921571.336492
-32.795182711444795,912.8011220851913,-20.18797996081412,-21.564263144508004,0,0,1760921571.336492
-8.399815300479531,764.1737579461187,-2.3860561717301607,1.4996998822316527,0,0,1760921571.336492
52.0257482836023,1075.5054696574807,43.50625618454069,54.03781445976347,0,0,1760921571.336492
-8.242739502340555,1042.9234612435102,0.6507425922900438,3.747379755601287,0,0,1760921571.336492
-38.49479024391621,812.811156869866,-24.10739511437714,-24.642200808040798,0,0,1760921571.336492
53.63390526454896,943.0232536271214,39.5756213311106,48.64487872365862,0,0,1760921571.336492
21.111735249869525,1136.204045938328,13.983485934324563,27.33118887618184,0,0,1760921571.336492
-49.692050711251795,822.3778209565207,-32.86250091064721,-34.08170829620212,0,0,1760921571.336492
30.450265439227223,851.6425381097943,27.70517887175083,31.44133892748505,0,0,1760921571.336492
44.3178144749254,1234.3128414759412,31.575975325889885,42.38054629787803,0,0,1760921571.336492
-31.80410922318697,939.3170127710328,-21.197752948850393,-21.71011924277991,0,0,1760921571.336492
-5.6135898334905505,682.1053933184594,-0.5460253935307264,-0.5161061938852072,0,0,1760921571.336492
56.7679414274171,1004.2790750013664,38.22551744710654,52.29502108041197,0,0,1760921571.336492
-6.088557127863169,1049.7450387626886,-4.218607150018215,2.3935359716415405,0,0,1760921571.336492
-35.36823388095945,819.3821610920131,-28.389580563642085,-22.286063835956156,0,0,1760921571.336492
53.23747586924583,970.7059930991381,38.31901494599879,53.334713268093765,0,0,1760921571.336492
21.33612924721092,996.8815528890118,15.490665616467595,22.372081534937024,0,0,1760921571.336492
-52.80738737434149,835.8302410971373,-28.699992259964347,-33.94707189779729,0,0,1760921571.336492
33.150473207235336,855.5806527631357,23.049003426916897,35.31961518153548,0,0,1760921571.336492
42.80315499287099,1107.6050309771672,34.95310498587787,41.92801840323955,0,0,1760921571.336492
-33.30754900537431,927.0688404161483,-21.927033440209925,-20.442293157801032,0,0,1760921571.336492
-6.873936118558049,723.4724267283455,-0.08601769898086786,3.7137206560000777,0,0,1760921571.336492
57.93105031363666,926.80704741925,41.89809920359403,50.051081106998026,0,0,1760921571.336492
-7.5882570100948215,988.9006063835695,-5.834243930876255,3.747379755601287,0,0,1760921571.336492
-40.458237720653415,745.4779980676249,-26.50467098597437,-20.09448246192187,0,0,1760921571.336492
54.3220468563959,964.4827995728701,39.77757592871785,52.882185373455286,0,0,1760921571.336492
20.48717195726931,969.0230381190777,21.39970754645765,22.054190038703382,0,0,1760921571.336492
-51.689157287590206,801.5278787035495,-34.14528659544885,-32.69794531259686,0,0,1760921571.336492
37.90388605091721,714.9716341290623,26.052143091335893,37.271842958405614,0,0,1760921571.336492
42.103793701156974,1110.8849232383072,33.9059329982847,40.50685642007738,0,0,1760921571.336492
-30.495144238695502,914.1400062693283,-17.32695649471134,-21.152874149382114,0,0,1760921571.336492
-4.5664178458973765,683.3246007040143,-4.5290188463404775,3.145255862735212,0,0,1760921571.336492
54.924170749261975,909.4688712246716,44.059761377982795,54.04529425967485,0,0,1760921571.336492
-4.947887641377747,923.0185287641361,-1.2715659849345684,0.2617929968982935,0,0,1760921571.336492
-38.397552845068276,722.7319265371189,-27.267610576935112,-21.885894540697336,0,0,1760921571.336492
54.05651395954192,978.2979900091887,42.836814092472196,52.908364673145115,0,0,1760921571.336492
19.896267764270306,1040.4962661722675,15.28123121894896,24.55992300901562,0,0,1760921571.336492
-47.246156140230596,746.9328191503882,-35.162539383396506,-33.81991529930383,0,0,1760921571.336492
31.149626730941236,674.7041313061491,27.77623697090894,34.96432468574494,0,0,1760921571.336492
41.78590220492333,983.6385671459138,30.480184638872743,40.55173521954566,0,0,1760921571.336492
-31.482477826997638,892.5009451257065,-25.80530969426036,-19.241785272024572,0,0,1760921571.336492
-7.25914581399411,714.7995987311006,2.782485567033291,1.8175913784652948,0,0,1760921571.336492
56.03866093605757,914.4653775654733,39.190411635674536,50.929957596585155,0,0,1760921571.336492
-5.875382830388844,928.5535806985572,-0.9798537883907557,3.0031396644189954,0,0,1760921571.336492
-37.33916115760803,803.2519725831226,-26.044663291424513,-26.257837588898838,0,0,1760921571.336492
54.45668325480074,731.823623329401,41.41939200926572,49.340500115416944,0,0,1760921571.336492
22.51419773325324,1020.7682939060032,16.369542106054723,19.843909164890647,0,0,1760921571.336492
-49.318060715682805,726.0118187982589,-32.855021110735834,-32.49225081503391,0,0,1760921571.336492
34.781069587916136,781.1267244452611,26.265317388810217,31.942485521547496,0,0,1760921571.336492
41.217437411658466,996.9825301878154,28.60275486111641,39.661639030091465,0,0,1760921571.336492
-33.06819540821016,751.4094793973491,-21.425886846147478,-18.269411283545196,0,0,1760921571.336492
-4.499099646694958,668.7389908768237,0.6357829924672842,5.321877636946738,0,0,1760921571.336492
53.80594066251069,895.376928191632,36.88663326296955,55.328079944476485,0,0,1760921571.336492
-4.229826849885285,1058.4515258595347,-4.861869942396879,0.49366679415106773,0,0,1760921571.336492
-40.52929581981152,587.0670556444675,-24.286910312250257,-20.92474025208503,0,0,1760921571.336492
55.85166593827307,869.8670705938712,38.17689874768257,51.61435928847641,0,0,1760921571.336492
21.594182344153523,918.26885582041,16.1189688090235,23.228518624790013,0,0,1760921571.336492
-49.01886871922761,750.9083328032866,-30.58864173758775,-30.98133123293519,0,0,1760921571.336492
30.730757935903966,883.8617762280628,25.506117697805166,35.40937278047204,0,0,1760921571.336492
39.691558229736984,827.4940040959045,33.662839501164854,41.247356611303985,0,0,1760921571.336492
-35.188718683086336,781.2389214439318,-15.898314711637795,-19.529757568612695,0,0,1760921571.336492
-8.194120802916586,644.059391069226,0.14585609827190638,4.001692952588201,0,0,1760921571.336492
54.99522884842008,949.915889245458,37.93754515051842,51.37500569131225,0,0,1760921571.336492
-5.579930733889341,1069.0466624340042,-3.5977837573736906,1.7540130792185664,0,0,1760921571.336492
-33.66657940112054,754.0835078656673,-20.91726045217365,-25.36026159953326,0,0,1760921571.336492
53.21877636946738,706.5456395288929,41.48297030851245,49.9501038081944,0,0,1760921571.336492
19.593335867859423,894.2699178047478,14.305117330513895,21.69141974300146,0,0,1760921571.336492
-49.673351211473346,678.5337888607755,-33.4234859040007,-35.592627878300846,0,0,1760921571.336492
32.9410388097167,714.87813663017,29.193659054115415,34.72497108858079,0,0,1760921571.336492
45.03587526641786,1036.184161523357,32.23419771809131,39.75139662902802,0,0,1760921571.336492
-34.859607486985624,766.9188445135951,-21.72507884260267,-22.719892230816185,0,0,1760921571.336492
-3.8857560539618134,669.976897762157,0.6208233926445246,6.907595218159258,0,0,1760921571.336492
55.46645624283701,880.1218762723729,42.26086949929595,55.64223154075444,0,0,1760921571.336492
-7.4648403115570545,922.7417761674151,-0.2094343975186348,1.7016544798389077,0,0,1760921571.336492
-36.69589836522937,641.6770747974515,-22.92184682842344,-27.578022273257375,0,0,1760921571.336492
52.32494028005749,935.0984056210145,38.99967673793435,46.15036545321345,0,0,1760921571.336492
20.232858760282397,917.7041309271008,15.872135411947966,24.238291612826288,0,0,1760921571.336492
-48.098853330127895,728.5025921687484,-33.632920301519334,-31.886387022212148,0,0,1760921571.336492
32.53712961450219,590.1337736081332,26.807602882385254,30.050096143968403,0,0,1760921571.336492
39.609280430711806,901.4991444190964,31.104747931472957,41.56150820758194,0,0,1760921571.336492
-34.28366289380938,786.5607990808785,-21.642801043577492,-17.76452478952706,0,0,1760921571.336492
-1.9971065763384104,662.9832848450169,0.9200153890997171,1.4398614829406142,0,0,1760921571.336492
55.04384754784405,935.1245849207044,38.004863349720836,49.08992681838572,0,0,1760921571.336492
-9.589103486388922,895.1151351947337,-3.9942131526768208,-2.090604075230658,0,0,1760921571.336492
-35.244817182421684,607.8272402985021,-23.490311621688306,-24.13731431402266,0,0,1760921571.336492
52.538114577531815,841.4251314308494,39.53448243159801,44.467410473152995,0,0,1760921571.336492
19.881308164447546,998.8786594653502,15.236352419480681,21.627841443754733,0,0,1760921571.336492
-48.63365902379155,685.849033174105,-31.317922228947282,-29.904240045696497,0,0,1760921571.336492
31.81158902309835,650.5144583927467,30.809295834973454,36.456544768065214,0,0,1760921571.336492
39.209111135452986,936.9309565993026,28.060469367541373,39.07073483709246,0,0,1760921571.336492
-30.59986143745482,800.4021688168868,-14.697806825861335,-23.77080411836505,0,0,1760921571.336492
-2.0307656759396195,632.5255396058783,0.11967679858207703,-1.892389377579093,0,0,1760921571.336492
56.42387063149363,986.4434921126813,43.52869558427483,50.59710650052875,0,0,1760921571.336492
-4.652435544878244,872.2119878660887,-3.1976144621148705,0.6806617919355631,0,0,1760921571.336492
-33.199091906659305,690.3630924206227,-20.734005354344845,-21.889634440653026,0,0,1760921571.336492
51.259068792685866,797.3915493525565,40.26750282291323,48.5775605244562,0,0,1760921571.336492
22.98916502762586,906.3984133610502,12.162154655903578,25.838968793861568,0,0,1760921571.336492
-48.499022625386715,692.3340196972713,-30.727018035948277,-32.750303911976516,0,0,1760921571.336492
35.30091568175703,790.4128960352391,26.482231586240232,38.67056554183364,0,0,1760921571.336492
39.85985372774303,896.1548273824155,28.658853360451758,42.32444779854268,0,0,1760921571.336492
-28.886987257748842,788.1689560618252,-22.96672562789172,-18.12729508522898,0,0,1760921571.336492
-0.7143208915367723,656.2813841244206,3.706240856088698,2.2813389729708433,0,0,1760921571.336492
56.32289333269,945.2410143008456,40.17400532402098,48.850573221221566,0,0,1760921571.336492
-5.845463630743325,938.3221993828192,-5.841723730787635,1.7128741797059774,0,0,1760921571.336492
-35.573928378522396,618.2316419752315,-22.630134631879628,-24.279430512338877,0,0,1760921571.336492
55.791827538982034,814.3108567520976,39.33252783399075,53.12527887057513,0,0,1760921571.336492
20.262777959927917,1021.9501022920012,16.986625598743558,25.954905692487955,0,0,1760921571.336492
-49.19838391710073,638.9619074296206,-30.693358936347067,-30.65595993679017,0,0,1760921571.336492
34.54171599075198,710.4949738821015,27.39850707538426,34.13780679553747,0,0,1760921571.336492
40.880846415646374,1018.371018034406,27.492004574276507,37.55607535503805,0,0,1760921571.336492
-30.311889140866697,855.1543041681871,-22.641354331746697,-21.111735249869525,0,0,1760921571.336492
-2.01580607611686,607.2550356052816,2.3935359716415405,4.0390919521451,0,0,1760921571.336492
53.20007686968893,867.1332037262619,38.93609843868762,53.62268556468189,0,0,1760921571.336492
-6.918814918026328,909.6072475230321,-1.2266871854662895,-0.2767525967210531,0,0,1760921571.336492
-35.166279283352196,767.7565821036696,-19.088449373841286,-27.33866867609322,0,0,1760921571.336492
57.51218151859939,816.5286174258217,42.31322809867561,50.81776059791446,0,0,1760921571.336492
21.975652139633894,858.7520879255608,15.030657921917737,26.99085798021406,0,0,1760921571.336492
-48.19235082902014,684.5475479895249,-33.34494800493121,-32.48103111516684,0,0,1760921571.336492
32.56330891419202,697.281907338649,28.61771446093917,34.362200792878866,0,0,1760921571.336492
41.217437411658466,1010.6144655263051,33.52072330284864,43.43145818542689,0,0,1760921571.336492
-30.895313533954322,863.4007835704833,-23.067702926695347,-19.125848373398185,0,0,1760921571.336492
-2.258899573236704,691.2569285100326,1.7577529791742563,5.161061938852072,0,0,1760921571.336492
54.87555204983801,885.9262010036036,41.95793760288507,48.40552512649447,0,0,1760921571.336492
-4.02039245236665,919.1402525100857,-4.293405149132013,-3.2237937618047,0,0,1760921571.336492
-35.14757978357375,618.4522960726172,-21.39222774654627,-20.49839165713638,0,0,1760921571.336492
53.47308956645429,855.1206450685859,38.034782549366355,47.646325435489416,0,0,1760921571.336492
22.90314732864499,1034.0711180483922,18.17217388469726,21.029457450844347,0,0,1760921571.336492
-46.25134275201708,682.2362898169085,-31.463778327219188,-33.77877639979124,0,0,1760921571.336492
36.464024567976594,851.8557124072686,29.679846048355103,37.02500956133008,0,0,1760921571.336492
40.17774522397667,1201.330663766712,32.47355131525546,36.778176164254546,0,0,1760921571.336492
-35.91051937453449,1155.041922015138,-19.058530174195766,-20.18424006085843,0,0,1760921571.336492
-2.7226471677422523,1515.4280314953066,1.1444093864411116,5.205940738320351,0,0,1760921571.336492
52.463316578418016,1754.6133331614546,39.1679722359404,51.341346591711044,0,0,1760921571.336492
-5.561231234110892,1853.253194492776,-5.164801838807762,3.777298955246806,0,0,1760921571.336492
-34.47813769150525,1478.3544032345526,-22.641354331746697,-17.958999587222934,0,0,1760921571.336492
54.138791758567095,1016.175696760416,36.11247397214174,50.873859097249806,0,0,1760921571.336492
18.830396276898682,991.0809680577368,17.76078488957137,28.22876486554742,0,0,1760921571.336492
-53.78724116273224,556.8524039024487,-34.22756439447403,-31.867687522433698,0,0,1760921571.336492
35.78336277604103,693.3587522851303,27.136714078485966,33.54316270258278,0,0,1760921571.336492
37.71689105313271,961.8723494037986,29.32455555256456,36.92777216248214,0,0,1760921571.336492
-32.840061510913074,799.6541888257489,-26.388734087347984,-19.967325863428414,0,0,1760921571.336492
-4.072751051746309,703.0189138706774,0.9200153890997171,6.167095026932657,0,0,1760921571.336492
51.18427079357207,994.0541885225102,36.9801307618618,51.277768292464316,0,0,1760921571.336492
-6.630842621438205,988.7173512857407,-9.215113490819931,1.2416467852890491,0,0,1760921571.336492
-34.754890288226306,630.5807916289195,-22.637614431791008,-20.715305854566395,0,0,1760921571.336492
53.56658706534654,829.7790829688311,39.45968443248421,45.97085025534034,0,0,1760921571.336492
17.831842988729477,968.4209142262116,14.630488626658916,21.889634440653026,0,0,1760921571.336492
-48.28584832791239,846.3131806729361,-30.22213154193014,-32.67176601290703,0,0,1760921571.336492
39.201631335541606,900.8147427272052,26.665486684069037,38.76780294068158,0,0,1760921571.336492
42.919091891497374,940.7568742539734,28.666333160363138,40.64523271843791,0,0,1760921571.336492
-37.44013845641166,771.5451007587835,-24.470165410079062,-25.173266601748765,0,0,1760921571.336492
-3.1190765630453825,715.9477480174974,4.977806841023266,6.122216227464378,0,0,1760921571.336492
53.271134968847036,1079.6530187083408,40.6863716179505,53.24121576920152,0,0,1760921571.336492
-12.89891494717449,992.6517260391265,-3.4107887595891953,-0.011219699867069721,0,0,1760921571.336492
-37.03996916115284,636.6805684566498,-24.017637515440583,-20.763924553990364,0,0,1760921571.336492
54.0265947598964,827.2546504987404,34.94562518596649,52.23144278116524,0,0,1760921571.336492
18.340469382703304,1090.3865315811709,17.65980759076774,21.848495541140437,0,0,1760921571.336492
-50.051081106998026,798.9249083343893,-35.970357773825526,-31.45629852730781,0,0,1760921571.336492
36.68093876540661,827.4753045961261,27.880954169668257,34.3135820934549,0,0,1760921571.336492
37.574774854816496,1008.5500407507643,32.1631396189332,40.74994991719723,0,0,1760921571.336492
-38.883739839307964,843.0071091121063,-20.240338560193777,-22.6039553321898,0,0,1760921571.336492
-2.5132127702236176,773.4973285356537,1.2940053846687078,5.609849933534861,0,0,1760921571.336492
56.64078482892364,1049.6104023642838,39.48586373217404,47.276075339876115,0,0,1760921571.336492
-6.518645622767508,947.7878861706704,-6.645802221260965,-1.4436013828963041,0,0,1760921571.336492
-36.60240086633712,646.1799143441021,-21.036937250755727,-22.55533663276583,0,0,1760921571.336492
53.45065016672015,919.933111300692,42.63485949486494,51.692897187545896,0,0,1760921571.336492
18.007618286646903,1042.3175974506885,16.616375503130257,27.054436279460788,0,0,1760921571.336492
-47.732343134470284,856.915797047317,-28.93560595717281,-31.44133892748505,0,0,1760921571.336492
33.973251197487116,724.212926919572,28.681292760185897,38.50227004382759,0,0,1760921571.336492
38.11332044843584,906.6041078586131,30.768156935460865,36.400446268729866,0,0,1760921571.336492
-35.68986527714878,940.1996291605756,-20.85742205288261,-24.829195805825293,0,0,1760921571.336492
1.4249018831178546,718.7339734844863,-2.165402074344456,3.8894959539175034,0,0,1760921571.336492
55.773128039203584,1027.9376821210608,41.81956130452454,47.99787603132427,0,0,1760921571.336492
-6.488726423121989,1010.6855236254632,-8.893482094630599,-3.62770295701921,0,0,1760921571.336492
-39.661639030091465,674.0159897143021,-20.232858760282397,-21.934513240121305,0,0,1760921571.336492
52.530634777620435,883.8243772285059,39.283909134566784,48.0240553310141,0,0,1760921571.336492
16.706133102066815,1070.882953312248,15.064317021518946,21.182793349027634,0,0,1760921571.336492
-49.90896490868181,812.9644927680492,-29.698545548133552,-31.02994993235916,0,0,1760921571.336492
33.37486720457673,844.84339999035,29.077722155489028,37.90388605091721,0,0,1760921571.336492
38.22925734706223,1107.425515779294,25.70433239545673,37.582254654727876,0,0,1760921571.336492
-36.007756773382425,912.0868011936545,-26.90858018118888,-24.88529430516064,0,0,1760921571.336492
-4.652435544878244,625.6291640875861,-0.17951519787311554,5.61732973344624,0,0,1760921571.336492
55.47393604274839,981.3198291733861,40.67889181803912,47.37705263867974,0,0,1760921571.336492
-9.944393982179463,1139.338082101196,-5.2096806382760406,-5.520092334598303,0,0,1760921571.336492
-31.878907222300768,736.2441850770265,-23.026564027182758,-23.856821817345917,0,0,1760921571.336492
53.11779907066375,823.6718263411894,38.32275484595448,49.99872250761837,0,0,1760921571.336492
18.303070383146405,1062.875827507116,14.196660231798887,19.110888773575425,0,0,1760921571.336492
-47.77348203398287,844.6377054927871,-34.30984219349921,-37.32794145774096,0,0,1760921571.336492
37.73559055291116,935.4873552164063,31.83776832278818,38.24795684684068,0,0,1760921571.336492
37.1671257596463,909.5100101241842,27.36110807582736,33.88723349850625,0,0,1760921571.336492
-41.236136911436915,909.0574822295457,-22.832089229486883,-26.729064983315766,0,0,1760921571.336492
-2.1429626746103168,808.0203450266272,-0.1047171987593174,2.655328968539834,0,0,1760921571.336492
53.17015767004341,1067.8872934477404,42.892912591807544,49.10862631816417,0,0,1760921571.336492
-8.657868397422135,1153.762876230292,-8.556891098618507,-2.131742974743247,0,0,1760921571.336492
-36.774436264298856,1532.6988894906826,-21.597922244109213,-23.602508620359004,0,0,1760921571.336492
54.44172365497798,1888.1950797787867,40.92572521511465,52.6166524766013,0,0,1760921571.336492
14.836183124221861,2037.3909087111242,16.324663306586444,23.172420125454664,0,0,1760921571.336492
-48.7271565226838,1760.724329689052,-36.25085027050227,-40.76490951701999,0,0,1760921571.336492
32.23045781813562,1831.2513630534522,31.890126922167838,36.14987297169864,0,0,1760921571.336492
36.56874176673591,2109.8926092521288,30.495144238695502,38.23299724701792,0,0,1760921571.336492
-41.206217711791396,1809.5412438106723,-30.046356244012713,-25.36026159953326,0,0,1760921571.336492
-3.257452861405909,1786.0696316887625,1.9372681770473719,6.316691025160253,0,0,1760921571.336492
53.62268556468189,2006.8621053728275,39.3886263333261,54.75587525125593,0,0,1760921571.336492
-12.012558657675982,2004.1095390054397,-5.430334735661745,-2.890942665748298,0,0,1760921571.336492
-34.10414769593626,1766.379058422055,-20.618068455718458,-19.024871074594557,0,0,1760921571.336492
55.705809840001166,1876.650008615572,45.60434005968273,51.719076487235725,0,0,1760921571.336492
20.000984963029623,2029.6717552025802,16.15262790862471,24.028857215307653,0,0,1760921571.336492
-51.01597529556602,1883.355649236124,-32.821362011134624,-33.950811797752976,0,0,1760921571.336492
37.638353154063225,1772.8977040448226,32.376313916407526,38.9061792390421,0,0,1760921571.336492
41.37451320979744,2172.9473225050606,31.890126922167838,33.962031497620046,0,0,1760921571.336492
-40.75368981715292,1871.2458531796,-23.520230821333826,-22.9368064282462,0,0,1760921571.336492
-1.4249018831178546,1841.8240602281876,2.9956598645076156,7.853789906948805,0,0,1760921571.336492
59.326032997108996,2014.4204431832768,38.37137354537845,52.74006917513907,0,0,1760921571.336492
-10.385702176950872,1874.6529020392336,-7.23670641425997,-5.404155435971916,0,0,1760921571.336492
-35.222377782687545,1762.6279387664981,-22.802170029841363,-18.97625237517059,0,0,1760921571.336492
55.80678713880479,1988.861966886092,42.51892259623855,50.918737896718085,0,0,1760921571.336492
15.909534411504865,2137.5416896245442,13.646894938312471,22.312243135645986,0,0,1760921571.336492
-52.904624773189425,1868.2726327148266,-29.249757553450763,-31.115967631340027,0,0,1760921571.336492
38.21429774723947,1824.8411745293997,31.01873023249209,37.683231953531504,0,0,1760921571.336492
40.839707516133785,2027.9962800224312,28.737391259521246,40.884586315602064,0,0,1760921571.336492
-38.3152750460431,1928.7056760988198,-24.069996114820242,-23.422993422485888,0,0,1760921571.336492
0.5572450933977962,1828.491316886153,2.543131969869137,10.03041168116033,0,0,1760921571.336492
54.479122654534876,2114.5600043968298,40.873366615734994,53.57032696530223,0,0,1760921571.336492
-7.700454008765519,1911.7564494996332,-6.226933426223695,-0.7105809915810823,0,0,1760921571.336492
-34.62399378977716,1724.6081158169545,-22.98168522771448,-17.065163497813046,0,0,1760921571.336492
57.81511341501027,1929.5621131886728,41.613866806961596,51.2104500932619,0,0,1760921571.336492
15.195213519968092,2246.9038441288285,14.286417830735445,25.225625201128423,0,0,1760921571.336492
-47.706163834780455,1832.5154492384754,-31.931265821680427,-32.391273516230285,0,0,1760921571.336492
36.64353976584971,1858.4927943306975,30.506363938562572,34.59033469017595,0,0,1760921571.336492
40.61905341874808,2104.099504220765,31.36654092837125,38.072181548923254,0,0,1760921571.336492
-35.42059248033911,1959.5336714335717,-20.805063453502953,-26.437352786771953,0,0,1760921571.336492
1.8961292775347829,1766.681990318466,0.845217389985919,3.6725817564874887,0,0,1760921571.336492
53.83585986215621,2123.614302189555,42.851773692294955,54.883031849749386,0,0,1760921571.336492
-10.89806847088039,2005.541920688469,-3.025579064153135,1.768972679041326,0,0,1760921571.336492
-36.70337816514075,1764.0678002494387,-20.423593658022583,-19.866348564624786,0,0,1760921571.336492
55.80678713880479,2088.096472310368,42.010296202264726,53.274874868802726,0,0,1760921571.336492
18.57234317995608,2034.896395440679,16.175067308358848,21.975652139633894,0,0,1760921571.336492
-47.50046933721751,1836.4236446921714,-35.0914812842384,-33.150473207235336,0,0,1760921571.336492
33.202831806614995,1902.1561263133772,33.36364750470966,37.07736816070974,0,0,1760921571.336492
40.877106515690684,2114.4665068979375,29.556429349817336,38.001123449765146,0,0,1760921571.336492
-38.29283564630896,1981.744937270414,-24.369188111275434,-27.525663673877716,0,0,1760921571.336492
1.1818083859980106,1910.2417900175788,-0.9499345887452364,5.852943430654705,0,0,1760921571.336492
54.965309648774564,2047.6344946897589,42.53388219606131,51.345086491666734,0,0,1760921571.336492
-13.871288935653865,2034.316710947547,-3.5529049579054117,-2.296298572793603,0,0,1760921571.336492
-35.581408178433776,1790.3892161375843,-18.729418978095055,-22.645094231702387,0,0,1760921571.336492
58.37609840836376,1978.2069919123314,46.124186153523624,51.15061169397086,0,0,1760921571.336492
16.975405898876488,2224.0493154996075,16.90434779971838,18.1198152853176,0,0,1760921571.336492
-51.670457787811756,1827.503983297851,-31.317922228947282,-34.59407459013164,0,0,1760921571.336492
42.78071559313685,1825.9294854165055,33.950811797752976,38.97349743824452,0,0,1760921571.336492
38.91739893890917,2116.7441059709527,24.234551712870598,37.03622926119715,0,0,1760921571.336492
-37.09606766048819,2070.1898313225247,-28.456898762844503,-21.77369754202664,0,0,1760921571.336492
4.03161215223372,1827.7956954943947,6.915075018070638,11.462793364189565,0,0,1760921571.336492
57.28030772134662,2070.100073723588,44.822700968943536,49.22830311674625,0,0,1760921571.336492
-9.510565587319434,1976.995264326688,-7.595736810006201,-1.5819776812568307,0,0,1760921571.336492
-34.47065789159387,1784.8990430026315,-15.931973811239004,-19.047310474328697,0,0,1760921571.336492
57.44860321935266,2024.2264608670957,38.7229241412133,50.37271250318736,0,0,1760921571.336492
19.054790274240077,2160.9347638473846,14.11438243277371,23.35567522328347,0,0,1760921571.336492
-44.29911497514695,1940.680835756939,-31.40393992792815,-31.82654862292111,0,0,1760921571.336492
37.238183858804405,1874.140535745304,30.902793333865702,38.77902264054865,0,0,1760921571.336492
39.33252783399075,2165.4937018933706,27.596721773035824,38.891219639219344,0,0,1760921571.336492
-37.45135815627873,1894.4220132050104,-22.48427853360772,-24.96383220423013,0,0,1760921571.336492
-0.11593689862638712,1808.7409052201547,7.221746814437211,8.134282403625548,0,0,1760921571.336492
53.21503646951169,1351.1772352913395,40.806048416532576,50.58214690070599,0,0,1760921571.336492
-9.850896483287215,970.1001293063164,-1.8699499778449535,-2.4421546710655093,0,0,1760921571.336492
-33.617960701696575,803.1248159846291,-20.277737559750676,-21.212712548673153,0,0,1760921571.336492
53.52170826587826,973.2079861694947,43.56235468387604,53.19259706977755,0,0,1760921571.336492
18.49380528088659,1211.570509845391,13.048510945402086,17.68224699050188,0,0,1760921571.336492
-49.11984601803124,1015.3716182699427,-35.622547077946365,-38.816421640105546,0,0,1760921571.336492
40.25628312304616,896.715812375769,27.529403573833406,37.226964158937335,0,0,1760921571.336492
37.226964158937335,1199.943160883151,30.764417035505176,37.47753745596856,0,0,1760921571.336492
-35.04660248477012,913.6650389749557,-22.99664482753724,-22.805909929797053,0,0,1760921571.336492
2.4832935705780983,920.0976668987423,2.41597537137568,7.805171207524836,0,0,1760921571.336492
49.58733351249248,1134.3901944598183,41.73728350549936,45.652958759106696,0,0,1760921571.336492
-6.062377828173339,1100.4506023619324,-6.873936118558049,-5.262039237655699,0,0,1760921571.336492
-31.194505530409515,912.4682709891349,-19.066009974107146,-21.852235441096127,0,0,1760921571.336492
56.73802222777158,1088.6287786019966,44.886279268190265,49.1722046174109,0,0,1760921571.336492
16.0441708099097,1053.7990903146565,10.423101176507771,19.634474767372012,0,0,1760921571.336492
-44.8002615692094,918.003322923556,-28.90942665748298,-37.12598686013371,0,0,1760921571.336492
38.865040339529514,953.9512412976474,33.965771397575736,41.42313190922141,0,0,1760921571.336492
35.573928378522396,1218.5117641631514,27.80615617055446,36.32938816957176,0,0,1760921571.336492
-35.03538278490305,1029.6056775012985,-23.33323582354933,-23.849342017434537,0,0,1760921571.336492
0.3104116963222623,873.7603064477444,7.1432089153677225,9.918214682489634,0,0,1760921571.336492
56.139638234861195,1050.83708954975,44.72920347005129,48.74585602246225,0,0,1760921571.336492
-13.302824142389,1173.000921602361,-4.82821084279567,-2.0756444754078984,0,0,1760921571.336492
-35.241077282465994,841.249356132932,-23.553889920935035,-19.36520197056234,0,0,1760921571.336492
55.5449941419065,1018.2401215359569,43.251942987553775,55.64597144071013,0,0,1760921571.336492
18.97625237517059,1220.9950577337295,14.802524024620652,20.87986145261675,0,0,1760921571.336492
-46.25882255192846,817.9049006095156,-30.513843738473952,-28.59901496116072,0,0,1760921571.336492
40.24880332313478,1014.9602292748168,26.889880681410432,40.843447416089475,0,0,1760921571.336492
39.47464403230697,1148.1642459966242,28.95056555699557,37.55233545508236,0,0,1760921571.336492
-35.32335508149117,1016.392610957846,-24.11487491428852,-23.221038824878633,0,0,1760921571.336492
3.2462331615388393,846.4365973714739,-2.214020773768425,10.812050771899521,0,0,1760921571.336492
56.71558282803744,1175.4580358732492,40.34604072198272,51.348826391622424,0,0,1760921571.336492
-11.24587916675955,1040.466346972622,-6.612143121659756,-0.003739899955689907,0,0,1760921571.336492
-30.267010341398418,828.9450852787122,-20.9359599519521,-20.49839165713638,0,0,1760921571.336492
56.562246929854155,1069.6749656265602,39.257729834876955,49.90148510877043,0,0,1760921571.336492
18.740638677962124,1199.2662389911711,11.305717566050589,19.522277768701315,0,0,1760921571.336492
-51.367525891400874,940.7306949542835,-33.44592530373484,-33.26267020590603,0,0,1760921571.336492
37.30550205800682,914.6187134636566,32.14818001911044,38.027302749454975,0,0,1760921571.336492
42.67225849442184,1063.7808832963929,31.209465130232275,38.28909574635327,0,0,1760921571.336492
-42.915351991541684,1089.395458092913,-22.87322812899947,-23.262177724391222,0,0,1760921571.336492
3.743639855645597,902.5014376072213,3.025579064153135,7.66305500920862,0,0,1760921571.336492
55.376698643900454,1097.3390055987984,41.9841169025749,53.693743663839996,0,0,1760921571.336492
-10.135128879919648,1184.5085937660187,-9.906994982622564,0.3665101956576109,0,0,1760921571.336492
-34.33228159323335,1001.3806525357068,-19.499838368967175,-20.360015358775854,0,0,1760921571.336492
55.02888794802129,974.9246002491564,43.04624848999083,55.21962284576148,0,0,1760921571.336492
16.51165830437094,1031.0604985840619,19.462439369410276,18.381608282215893,0,0,1760921571.336492
-49.710750211030245,830.298929062672,-37.33916115760803,-33.4608849035576,0,0,1760921571.336492
38.838861039839685,919.342207107693,29.507810650393367,37.95998455025256,0,0,1760921571.336492
41.07906111329794,1274.3783897012472,31.05612923204899,38.75284334085882,0,0,1760921571.336492
-39.35496723372489,978.9375129016116,-28.296083064749837,-29.223578253760934,0,0,1760921571.336492
0.23187379725277424,798.7341734366491,4.917968441732228,9.562924186699092,0,0,1760921571.336492
52.538114577531815,1194.3632301492617,40.99304341431707,53.02804147172719,0,0,1760921571.336492
-14.563170427456498,1149.0169431865215,-3.814697954803705,-3.3584301602095366,0,0,1760921571.336492
-34.025609796866775,934.1858700318262,-19.33154287096113,-17.151181196793914,0,0,1760921571.336492
57.86373211443424,925.7037769323215,44.54220847226679,51.97338968422264,0,0,1760921571.336492
14.024624833837152,1093.8421991402283,12.797937648370862,18.591042679734528,0,0,1760921571.336492
-51.77517498657107,877.3543503051624,-34.24252399429679,-30.708318536169827,0,0,1760921571.336492
39.7588764289394,872.6981748603284,31.164586330763996,44.011142678558826,0,0,1760921571.336492
39.257729834876955,1259.6506636757404,28.767310459166765,37.15964595973492,0,0,1760921571.336492
-38.34893414564431,1010.3040538299829,-25.064809503033757,-29.43675255123526,0,0,1760921571.336492
2.0681646754965186,810.2605451000854,7.883709106594324,8.02956520486623,0,0,1760921571.336492
55.387918343767524,327.5909267687239,37.7954289522022,46.27378215175122,0,0,1760921571.336492
-7.203047314658761,44.93676791759208,-7.7864717077463865,-2.7637860672548413,0,0,1760921571.336492
-36.13865327183157,-287.28602494625375,-18.774297777563334,-23.538930321112275,0,0,1760921571.336492
59.55790679436177,68.13910724269226,42.63485949486494,51.00849549565464,0,0,1760921571.336492
16.87068870011717,132.9291340750642,11.447833764366806,16.751011901535094,0,0,1760921571.336492
-52.885925273410976,1.610026930924505,-29.82196224667132,-32.31647551711649,0,0,1760921571.336492
35.226117682643235,-152.14100014744326,29.649926848709583,40.27498262282461,0,0,1760921571.336492
41.284755610860884,207.83185038762167,28.872027657926083,37.88892645109445,0,0,1760921571.336492
-39.93091182690114,-25.070419352967292,-26.328895688056946,-27.40972677525133,0,0,1760921571.336492
6.05115812830627,27.826725620310754,5.022685640491545,14.944640222936869,0,0,1760921571.336492
55.17848394624889,69.75100412359461,38.797722140327096,48.21105032879859,0,0,1760921571.336492
-14.731465925462544,64.35432848753408,-9.054297792725265,-1.2827856848016381,0,0,1760921571.336492
-32.443632115609944,-132.23725258326158,-22.701192731037736,-18.419007281772792,0,0,1760921571.336492
58.83610610291362,54.47351280460134,43.95878407917917,57.44112341944128,0,0,1760921571.336492
18.239492083899677,294.6461480590515,16.14514810871333,16.627595202997327,0,0,1760921571.336492
-46.95070404373109,-96.72316260403022,-26.702885683625937,-36.10499417223036,0,0,1760921571.336492
38.401292745023966,-98.40237768413499,31.527356626465917,35.41311268042773,0,0,1760921571.336492
36.55752206686884,165.33910709107295,29.272196953184903,34.90822618640959,0,0,1760921571.336492
-38.427472044713795,973.8082401123829,-24.142924163956195,-28.70560210989788,0,0,1760921571.336492
3.4407079592347145,886.3544195485301,7.500369361136109,10.64936512382701,0,0,1760921571.336492
47.713643634691834,1163.5707638640888,41.054751763585955,48.736506272573024,0,0,1760921571.336492
-13.882508635520935,1094.9735188768245,-7.242316264193505,-8.353066551033407,0,0,1760921571.336492
-32.09582141973078,865.5044772955589,-22.35899188509211,-19.85699881473556,0,0,1760921571.336492
53.682523963972926,973.3257930180989,40.08985757501796,50.80093104811385,0,0,1760921571.336492
15.782377813011408,1151.1131571116857,10.2454559286125,14.916590973269194,0,0,1760921571.336492
-50.17449780553579,904.2760201361962,-32.38192376634106,-34.91383603634313,0,0,1760921571.336492
41.53158900793642,910.525392962154,32.550219264347106,39.28203918458894,0,0,1760921571.336492
34.59033469017595,1161.2183667919599,30.164163092616946,37.382170007098466,0,0,1760921571.336492
-39.95335122663528,1077.3735496853478,-23.14811077574268,-25.754821044858545,0,0,1760921571.336492
2.1990611739456654,985.0503793791868,0.24870334705337882,8.065094254445285,0,0,1760921571.336492
52.6166524766013,951.1257468811236,39.16610228596255,45.80068480735645,0,0,1760921571.336492
-14.86610232386738,1022.6064547342248,-5.297568287234753,-5.82863408094272,0,0,1760921571.336492
-31.02994993235916,737.4652624125592,-17.08199304761365,-23.346325473394245,0,0,1760921571.336492
57.83755281474441,1134.104092113208,44.06163132796064,50.363362753298134,0,0,1760921571.336492
15.116675620898604,1270.5281626968645,13.824540186207741,14.953989972826093,0,0,1760921571.336492
-48.21105032879859,841.647655478213,-33.57121195225045,-33.20844165654853,0,0,1760921571.336492
42.829334292560816,887.4801294351928,29.65179679868743,43.21267403801903,0,0,1760921571.336492
37.32046165782958,1161.4016218897887,22.646964181680232,39.24464018503204,0,0,1760921571.336492
-41.90183910354972,1106.376473841723,-26.663616734091192,-28.211935315746814,0,0,1760921571.336492
2.457114270888269,728.0107953245752,3.251843011472374,12.29492110433057,0,0,1760921571.336492
56.41265093162656,1070.8399444627576,39.26707958476618,52.2295728311874,0,0,1760921571.336492
-15.060577121563256,1059.9119567922316,-6.62897267146036,-6.318560975138098,0,0,1760921571.336492
-33.39730660431087,859.520637366455,-21.259461298119277,-21.633451293688267,0,0,1760921571.336492
53.368372367694974,1089.479605841916,43.897075729910284,50.87572904722765,0,0,1760921571.336492
18.08989608567208,1261.1597133078612,11.146771817933768,21.56239319453016,0,0,1760921571.336492
-48.33820692729205,1689.7316787801683,-31.98923427099362,-30.83360518468544,0,0,1760921571.336492
41.07158131338656,1876.3639062689617,32.49786066496745,38.35828389553353,0,0,1760921571.336492
36.72581756487489,2068.7219205899164,26.74589453311637,35.044732534792274,0,0,1760921571.336492
-40.97434391453862,2040.661451222375,-29.18430930422619,-20.455382807645947,0,0,1760921571.336492
6.885155818425119,1799.897911774926,4.859999992419034,11.90597150893882,0,0,1760921571.336492
54.65863785240799,2163.404967768118,42.98080024076626,48.90106187062338,0,0,1760921571.336492
-9.155275091528893,2017.8779806923121,-8.023955354932696,-2.447764520999044,0,0,1760921571.336492
-30.24457094166428,1874.8230674872175,-22.987295077648014,-16.176937258336693,0,0,1760921571.336492
54.82319345045835,1893.7544410629198,39.068864887114614,49.69392066122964,0,0,1760921571.336492
12.435167352668941,2107.141912834719,15.432697167154402,16.382631755899638,0,0,1760921571.336492
-44.893759068101645,1757.5136255770922,-33.27201995579526,-31.20011538034305,0,0,1760921571.336492
42.74331659357995,1968.6945563750342,31.690042274538428,38.87812998937443,0,0,1760921571.336492
40.476937220431864,2176.2178650163114,22.70680258097127,37.59908420452848,0,0,1760921571.336492
-40.1291265245527,1876.3788658687845,-28.00998071813956,-27.056306229438633,0,0,1760921571.336492
8.085663704201579,1788.0686082150787,5.233989987988025,9.295521339867264,0,0,1760921571.336492
55.63849164079875,2132.333878936246,37.385909907054156,50.9692265461199,0,0,1760921571.336492
-9.465686787851155,2020.7315243585035,-3.939984603319317,-2.488903420511633,0,0,1760921571.336492
-33.31876870524138,1703.0419827224687,-20.732135404367,-19.07535972399637,0,0,1760921571.336492
53.49926886614412,1991.6575421029702,42.76762594329193,51.59004993876442,0,0,1760921571.336492
15.31863021850586,1983.1717091035098,10.26789532834664,19.46056941943243,0,0,1760921571.336492
-53.738622463308275,1852.3013899540529,-30.04448629403487,-35.6655559274368,0,0,1760921571.336492
43.79048858117312,1900.4376422837377,32.138830269221216,38.83699108986184,0,0,1760921571.336492
34.93066558614373,2261.2893693083897,28.00624081818387,39.809365078341216,0,0,1760921571.336492
-40.58539431914687,1876.7378962645307,-24.868464755360037,-24.565532858949155,0,0,1760921571.336492
4.110150051303208,1784.5044835573062,5.566841084044427,11.793774510268122,0,0,1760921571.336492
54.46042315475643,2064.084444644861,36.207841421011835,52.775598224718124,0,0,1760921571.336492
-14.413574429228902,2131.6532171443105,-3.9212851035408676,-6.842146968934685,0,0,1760921571.336492
-31.84150822274387,1706.897819576785,-20.066433212254196,-18.66771062882617,0,0,1760921571.336492
55.03262784797698,1950.8888926859945,40.284332372713834,51.76582523668185,0,0,1760921571.336492
15.385948417708278,2092.4665454085916,14.531381277833134,13.622585588600487,0,0,1760921571.336492
-46.064347754232585,1827.767646244727,-33.769426649902016,-32.213628268335015,0,0,1760921571.336492
41.96541740279645,1749.9739872664213,29.674236198421568,39.24464018503204,0,0,1760921571.336492
35.81702187564224,2123.298280643299,30.642870286945254,34.06487874640152,0,0,1760921571.336492
-40.15904572419822,1915.4084618063644,-28.80283950874582,-26.495321236085147,0,0,1760921571.336492
5.770665631629527,1730.9266767920926,3.0872874134220183,14.740815675351769,0,0,1760921571.336492
53.26739506889135,2128.2760874843225,41.024832563940436,50.277345054317266,0,0,1760921571.336492
-13.766571736894548,1958.0882001006976,-10.772781822364777,-7.227356664370745,0,0,1760921571.336492
-31.38150052819401,1720.4362574163824,-18.29746053321287,-18.865925326477736,0,0,1760921571.336492
62.609665158204734,1961.1362185645849,42.09444395126775,51.05150434514508,0,0,1760921571.336492
16.721092701889575,2079.242259165272,10.765302022453398,17.14931124681607,0,0,1760921571.336492
-52.728849475272,1750.6957879578695,-33.18974215677008,-35.9610080239363,0,0,1760921571.336492
42.29078869894147,1876.0385349728167,31.454428577329963,39.62610998051241,0,0,1760921571.336492
39.50456323195249,2049.708269215189,27.359238125849515,37.13159671006724,0,0,1760921571.336492
-41.651265806518495,1797.7998278997838,-27.52753362385556,-21.203362798783928,0,0,1760921571.336492
8.03704500477761,1789.463590898551,4.871219692286104,10.68302422342822,0,0,1760921571.336492
53.319753668271005,2017.5039906967431,34.82033853745088,47.17322809109464,0,0,1760921571.336492
-14.06202383339405,2033.9520707018673,-11.8760523092933,-4.990896490868181,0,0,1760921571.336492
-35.166279283352196,1729.0866460138932,-19.703662916552275,-17.429803743492812,0,0,1760921571.336492
57.47852241899818,1937.6459069428965,38.80333199026063,48.42609457625076,0,0,1760921571.336492
20.59562905598432,2026.0870610950515,8.68591764708981,14.471542878542095,0,0,1760921571.336492
-51.46476329024881,1691.713825756684,-30.912143083754927,-33.86666404874995,0,0,1760921571.336492
41.33711421024054,1804.299774022773,31.028079982381314,41.56711805751547,0,0,1760921571.336492
37.52615615539253,2018.9214127799496,28.967395106796175,41.421261959243566,0,0,1760921571.336492
-41.284755610860884,1859.4445988694206,-27.377937625627965,-25.773520544636995,0,0,1760921571.336492
-101.93471319228411,1542.7349110217765,-69.0516428318806,-75.2748363581486,0,0,1760921571.336492
-134.8458328023553,1308.8453076928854,-96.89519800199196,-96.1023392113857,0,0,1760921571.336492
-43.82414768077433,1552.0472619114444,-30.485794488806278,-26.566379335243255,0,0,1760921571.336492
-82.18430152628571,1742.0266998605803,-53.546017615590245,-53.99854551022872,0,0,1760921571.336492
-150.09714482165873,1367.8684087935835,-98.1742437868379,-106.91065008332953,0,0,1760921571.336492
-53.94805686082691,1322.3313869331032,-32.53899956448004,-34.31545204343274,0,0,1760921571.336492
-61.786887167952955,1786.0041834395379,-44.53659862233326,-34.46130814170465,0,0,1760921571.336492
-140.13405133970082,1521.7727717701346,-91.7266562632285,-100.4368832600303,0,0,1760921571.336492
-90.65517492592335,1323.8722257148474,-57.64868786698207,-61.70273941894993,0,0,1760921571.336492
-44.841400468721986,1726.4313170453534,-25.463108848314732,-22.426310084294528,0,0,1760921571.336492
-114.4633780438453,1451.6795668005943,-75.86200065119192,-78.59960741875693,0,0,1760921571.336492
-130.6496650520712,1398.8497400265187,-84.8003615452908,-93.68636384001002,0,0,1760921571.336492
-41.92053860332817,1558.7229833323509,-27.92770291911438,-21.46141589572653,0,0,1760921571.336492
-84.04677170421928,1595.6170963952318,-53.138368520420045,-59.47001914540306,0,0,1760921571.336492
-148.61614443920553,1306.7584435176104,-101.5476335468702,-103.97482861811295,0,0,1760921571.336492
-60.75467478018254,1510.9308017985895,-34.154636345338076,-32.34826466673985,0,0,1760921571.336492
-59.000661700963974,1776.486138052307,-38.53405919345096,-33.19348205672577,0,0,1760921571.336492
-140.2200690386817,1514.8913558516651,-93.47318954253569,-102.48634843574837,0,0,1760921571.336492
-86.35428997687995,1160.66299164854,-63.02292410330847,-58.62854165537283,0,0,1760921571.336492
-44.75538276974112,1604.9107477851212,-29.274066903162748,-23.19298957521096,0,0,1760921571.336492
-114.52321644313633,1572.5493934685364,-78.30415532225743,-82.3918659738265,0,0,1760921571.336492
-130.59356655273587,1230.528062720783,-87.22381671657786,-90.63086557621136,0,0,1760921571.336492
-41.1688187122345,1539.3914404613897,-25.92311654286459,-24.860984955448657,0,0,1760921571.336492
-81.62331653293222,1665.8898165626451,-53.72553281346336,-57.128841773141176,0,0,1760921571.336492
-150.75910711381584,1270.279459349811,-99.44206987181678,-109.49492095271125,0,0,1760921571.336492
-58.578053005971014,1379.1329874601215,-35.94604842411354,-33.21218155650422,0,0,1760921571.336492
-61.756967968307436,1614.0996819762513,-41.98598685255274,-33.14860325725749,0,0,1760921571.336492
-136.81302017904818,1490.1519176447764,-93.56668704142794,-103.99726801784709,0,0,1760921571.336492
-91.26851851865649,1209.6182820685208,-55.46458629285917,-59.37278174655512,0,0,1760921571.336492
-42.58624079544097,1625.790609237738,-27.254520927090198,-21.798006891738623,0,0,1760921571.336492
-115.87706022709608,1569.4340568054467,-79.32888791011646,-82.42178517347202,0,0,1760921571.336492
-126.60683319997042,1162.7947346232831,-90.39899177895859,-97.26918799756095,0,0,1760921571.336492
-39.32130813412368,1451.3915945040062,-27.1423239284195,-21.91394379036501,0,0,1760921571.336492
-82.69292792025954,1617.4394126366824,-58.84171595284715,-57.532750968355685,0,0,1760921571.336492
-147.12018445692956,1399.1377123231068,-98.64921108121052,-107.3669178779237,0,0,1760921571.336492
-54.879291949793696,1362.4156346581876,-36.38361671892926,-32.546479364391416,0,0,1760921571.336492
-60.42182368412614,1572.6653303671628,-41.032312363851815,-43.79983833106235,0,0,1760921571.336492
-135.05152729991823,1509.4236221164465,-91.6929971636273,-94.49418223043904,0,0,1760921571.336492
-88.98717954568565,1117.1417758641765,-59.114728649612516,-59.42888024589047,0,0,1760921571.336492
-41.9093189034611,1562.193610491231,-28.484948012512177,-22.134597887750715,0,0,1760921571.336492
-114.28386284597218,1447.715272847563,-75.83956125145778,-83.41659856168553,0,0,1760921571.336492
-128.6936973752454,1316.5420218016952,-83.6148132593371,-96.2107963101007,0,0,1760921571.336492
-41.11272021289915,1499.950455528684,-24.71886875713244,-21.723208892624825,0,0,1760921571.336492
-85.61752968560904,1482.6571581335738,-58.53130425652489,-58.729518954176456,0,0,1760921571.336492
-147.83450534846634,1301.2346112830564,-99.7300421684049,-110.65802983893082,0,0,1760921571.336492
-54.524001454003155,1362.0117254629731,-35.32148513151333,-37.071758310776204,0,0,1760921571.336492
-61.66721036937088,1625.7494703382254,-40.71816076757386,-40.231973773334175,0,0,1760921571.336492
-141.1363445278257,1323.7974277157336,-92.90846464922652,-106.17014989210293,0,0,1760921571.336492
-89.0806770445779,1214.6073086094111,-55.21401299582794,-62.88080790499225,0,0,1760921571.336492
-41.8345209043473,1469.122460193932,-22.7329818806611,-22.882577878888696,0,0,1760921571.336492
-112.73928416427225,1654.326045899652,-78.19943812349811,-80.77248929301277,0,0,1760921571.336492
-129.01158887147903,1232.0015833033249,-84.92003834387287,-93.31611374439672,0,0,1760921571.336492
-41.06036161351949,1346.6856154445559,-23.746494768653065,-24.37853786116466,0,0,1760921571.336492
-83.43716801144183,1473.442044642754,-55.7488186894916,-59.529857544694096,0,0,1760921571.336492
-147.66994975041598,1296.1820064429194,-98.36497868457809,-107.09016528120264,0,0,1760921571.336492
-57.388764820061624,1355.0143726458773,-37.71128120319918,-36.72020771494135,0,0,1760921571.336492
-61.62981136981398,1643.6822906257585,-39.3717967835255,-39.457814482506365,0,0,1760921571.336492
-139.53940724674612,1491.3561654305086,-98.52205448271707,-105.7737204967998,0,0,1760921571.336492
-88.3401768533513,1391.440998214297,-59.2680645477958,-66.28411686467007,0,0,1760921571.336492
-40.1665255241096,1347.201721638441,-31.92939587170258,-21.4726355955936,0,0,1760921571.336492
-111.29942268133163,1372.2665311414748,-77.42901873262599,-78.26675632270053,0,0,1760921571.336492
-127.3174141915515,1154.5407754210755,-83.61107335938141,-92.48585595423356,0,0,1760921571.336492
-41.209957611747086,1582.5087470505387,-24.558053059037775,-19.90561751415953,0,0,1760921571.336492
-84.12156970333308,1526.687000311911,-58.48642545705661,-60.99215842736885,0,0,1760921571.336492
-151.27147340774536,1235.0533416671678,-101.15120415156707,-107.2173218796961,0,0,1760921571.336492
-56.124678635038435,1374.099082119763,-36.185402021277696,-34.86895723687485,0,0,1760921571.336492
-67.8829240957275,1691.9008207544684,-41.885009553749114,-38.276006096508354,0,0,1760921571.336492
-144.0646861931309,1386.930678867735,-96.5473873061128,-103.46994212409481,0,0,1760921571.336492
-89.1180760441348,1162.6862775245681,-60.805163429584354,-61.91217381646857,0,0,1760921571.336492
-45.88483255635947,1615.502144459635,-27.729488221462816,-25.006841053720564,0,0,1760921571.336492
-115.48437073174864,1388.2845226516947,-79.83003450417891,-83.8728663562797,0,0,1760921571.336492
-129.69973046332598,1208.2494786847383,-90.03996138321236,-91.50974206579849,0,0,1760921571.336492
-45.60060015972704,1479.5156421707943,-23.645517469849437,-21.19214309891686,0,0,1760921571.336492
-84.07295100390911,1524.951686732471,-54.97465939866379,-60.412473934236914,0,0,1760921571.336492
-151.14057690929621,1235.0720411669463,-100.67249695723876,-107.41179667739198,0,0,1760921571.336492
-54.71473635174334,1473.718797239475,-33.49641395313665,-34.94375523598865,0,0,1760921571.336492
-61.48395527154207,1564.3964115651324,-42.59185064537451,-38.86317038955167,0,0,1760921571.336492
-140.5828393343836,1385.6291936831549,-96.15095791080967,-104.16182361589745,0,0,1760921571.336492
-90.54671782720834,1325.1176124000922,-62.383401210885495,-65.9737051683478,0,0,1760921571.336492
-43.83910728059709,1467.5143032129854,-27.437776024919003,-27.254520927090198,0,0,1760921571.336492
-112.39147346839309,1489.9537029471248,-77.15974593581632,-82.95659086713567,0,0,1760921571.336492
-128.04295478295535,1152.846600741148,-91.45364356646314,-91.58827996486798,0,0,1760921571.336492
-43.51373598445207,1475.1474390225485,-27.22460172744468,-24.169103463646024,0,0,1760921571.336492
-87.53983826283365,1595.6470155948773,-54.49595220433548,-59.05489025032148,0,0,1760921571.336492
-145.34747187793255,1255.132864529267,-104.81256620818749,-109.54353965213522,0,0,1760921571.336492
-52.511935277841985,1352.2468466786668,-32.550219264347106,-34.93253553612158,0,0,1760921571.336492
-61.341839073225856,1624.6723791509867,-41.63817615667358,-37.415829106699675,0,0,1760921571.336492
-140.03681394085288,1366.8287166059017,-93.38343194359913,-101.34567894926295,0,0,1760921571.336492
-87.36032306496054,1243.2437225701287,-58.23585216002539,-60.90988062834367,0,0,1760921571.336492
-41.90183910354972,1512.2696859827265,-28.76544050918892,-25.89319734321907,0,0,1760921571.336492
-116.32210832182318,1574.9691087398678,-78.65570591809228,-81.6513657825999,0,0,1760921571.336492
-126.47593670152128,1181.7597672985867,-87.03308181883767,-87.16397831728682,0,0,1760921571.336492
-40.21140432357788,1491.1916098324582,-24.558053059037775,-18.75372832780704,0,0,1760921571.336492
-86.69836077280343,1624.4479851536453,-56.68005377845839,-59.585956044029444,0,0,1760921571.336492
-151.32009210716933,1311.9419448561966,-96.67080400465056,-106.02055389387533,0,0,1760921571.336492
-54.21732965763658,1312.6749652475119,-33.55999225238338,-30.063185793813318,0,0,1760921571.336492
-59.18391679879278,1634.6279928330332,-37.12411691015586,-41.36516345990822,0,0,1760921571.336492
-141.26724102627486,1436.3160577826202,-92.00714875990525,-102.89773743087426,0,0,1760921571.336492
-86.94893406983465,1184.3926568673924,-58.06381676206365,-64.07009609090164,0,0,1760921571.336492
-45.1331126652658,1575.653510431759,-27.284440126735717,-24.591712158638984,0,0,1760921571.336492
-117.52635610755533,1547.2078313687816,-77.07746813679114,-77.40283943293616,0,0,1760921571.336492
-128.57402057666332,1220.8417218355462,-85.11825304152444,-87.77358201006427,0,0,1760921571.336492
-41.35955360997468,1478.2515559857711,-23.17429007543251,-21.15848399931565,0,0,1760921571.336492
-85.53525188658386,1699.2646837672219,-57.992758662905544,-55.950773287098855,0,0,1760921571.336492
-147.26230065524578,1323.04570782464,-100.41070396034047,-109.52858005231246,0,0,1760921571.336492
-58.82114650309086,1495.6046917801723,-36.39857631875202,-33.63853015145287,0,0,1760921571.336492
-62.33291256148368,1447.8573890458792,-38.111450498458,-42.13558285078034,0,0,1760921571.336492
-139.87225834280252,1352.4450613763183,-95.33191982051358,-108.45522876502946,0,0,1760921571.336492
-92.48398600425571,1303.785223052837,-53.70683331368491,-61.72891871863976,0,0,1760921571.336492
-47.79592143371701,1571.0422137863934,-27.60981142288074,-27.643470522481948,0,0,1760921571.336492
-114.44841844402254,1636.2324099140242,-74.48945736745372,-82.76959586935118,0,0,1760921571.336492
-128.7310963748023,1306.1563196247444,-85.02475554263219,-91.74909566296265,0,0,1760921571.336492
-40.065548225305974,1436.921921575442,-25.081639052834362,-20.092612511944026,0,0,1760921571.336492
-81.16704873833805,1556.5463615581393,-54.82506340043619,-58.20219306042418,0,0,1760921571.336492
-147.83076544851065,1285.7252461668104,-98.04334728838876,-106.02803369378671,0,0,1760921571.336492
-54.67359745223075,1368.7024064837024,-34.54732584068552,-31.461908377241343,0,0,1760921571.336492
-63.45114264823496,1732.5834524724633,-40.57978446921334,-40.80417846655473,0,0,1760921571.336492
-142.63230451010168,1391.1193668181077,-94.74475552747026,-102.90147733082995,0,0,1760921571.336492
9.028118493035436,631.3269016700797,7.072150816209614,15.127895320765674,0,0,1760921571.336492
53.13275867048651,1038.9086786410771,38.34145434573293,44.00740277860314,0,0,1760921571.336492
-18.213312784209847,793.2570899515413,-8.358676400966942,-4.708534044213593,0,0,1760921571.336492
-27.869734469801188,612.388048294466,-19.241785272024572,-15.116675620898604,0,0,1760921571.336492
58.85480560269207,912.0101332445629,45.667918358929455,50.58214690070599,0,0,1760921571.336492
13.976006134413183,931.8316030097194,10.995305869728327,17.046463998034596,0,0,1760921571.336492
-48.446664026007056,674.8032386549748,-31.149626730941236,-35.07652168441564,0,0,1760921571.336492
48.74585602246225,686.8831155118532,31.216944930143654,39.04081563744694,0,0,1760921571.336492
35.11018078401685,1044.8962584701367,25.951165792532265,35.40189298056066,0,0,1760921571.336492
-44.58708727173507,804.8171207145788,-28.643893760629,-28.415759863331914,0,0,1760921571.336492
9.802277783863246,784.2813300578855,10.946687170304358,14.047064233571291,0,0,1760921571.336492
54.6922969520092,1023.5189903234132,39.51204303186387,50.511088801547885,0,0,1760921571.336492
-17.465332793071866,690.6828538668342,-8.392335500568151,-7.838830307126045,0,0,1760921571.336492
-29.77334354724735,550.9601915222593,-14.828703324310482,-15.348549418151379,0,0,1760921571.336492
57.373805220238864,910.1626226664521,40.13286642450839,52.38851857930422,0,0,1760921571.336492
10.165048079565167,945.5757353468798,10.0790303805843,16.264824907295406,0,0,1760921571.336492
-51.00475559569895,665.8798373606987,-29.477891450747848,-32.48851091507822,0,0,1760921571.336492
43.56235468387604,836.7184673366137,29.522770250216126,42.80315499287099,0,0,1760921571.336492
32.55582911428064,1054.649917554576,22.820869529619813,35.50661017931998,0,0,1760921571.336492
-47.739822934381664,796.1592523171566,-31.703131924383342,-30.805555935017765,0,0,1760921571.336492
13.205586743541062,669.5299797174521,8.44095419999212,12.977452846243978,0,0,1760921571.336492
54.26220845710486,918.7756122644059,40.095467424951494,53.07292027119547,0,0,1760921571.336492
-12.113535956479609,941.3346887971275,-8.983239693567157,-10.909288170747459,0,0,1760921571.336492
-28.034290067851543,729.7386291041039,-21.28751054778695,-17.794443989172578,0,0,1760921571.336492
58.140484711155295,776.5771361491643,42.406725597567856,52.4333973787725,0,0,1760921571.336492
9.873335883021355,930.64231482381,9.353489789180458,13.69925353769213,0,0,1760921571.336492
-46.32614075113088,737.3605452137999,-29.38065405189991,-35.76466327626258,0,0,1760921571.336492
44.14577907696366,844.4525804449804,35.80206227581948,44.37391297426075,0,0,1760921571.336492
32.66428621299565,981.658290119376,21.167833749204874,33.85357439890504,0,0,1760921571.336492
-40.96312421467155,815.2738809906878,-29.36195455212146,-25.924986492842436,0,0,1760921571.336492
7.610696409828961,697.7063859836198,8.945840694010258,17.34565599448979,0,0,1760921571.336492
52.79242777451873,1095.0183976762928,37.30550205800682,51.726556287147105,0,0,1760921571.336492
-18.725679078139365,1050.0461007091217,-12.06491725705564,-10.007972281426191,0,0,1760921571.336492
-27.42842627502978,1473.2812289446592,-18.224532484076917,-18.07119658589363,0,0,1760921571.336492
57.06713342387229,1791.3036216767505,42.38428619783372,54.086433159187436,0,0,1760921571.336492
12.46134665235877,1977.2813666732982,8.369896100834012,18.748118477873504,0,0,1760921571.336492
-48.895452020689845,1758.9647067598999,-30.64848013687879,-29.44049245119095,0,0,1760921571.336492
41.15385911241174,1760.759858738631,36.441585168242455,44.444971073418856,0,0,1760921571.336492
33.625440501607955,2080.038857855834,27.907133469358087,37.189565159380436,0,0,1760921571.336492
-44.65814537089318,1892.1575037818402,-28.692512460052967,-27.230211577378213,0,0,1760921571.336492
8.86356289498508,1574.931709740311,8.579330498352647,15.70010001398623,0,0,1760921571.336492
50.43629080243409,2021.5543023487553,33.3486879048869,51.59565978869796,0,0,1760921571.336492
-17.850542488507926,1793.5326020503417,-14.08820313308388,-6.462547123432159,0,0,1760921571.336492
-27.83981527015567,1668.919135526754,-18.370388582348824,-17.936560187488794,0,0,1760921571.336492
65.57914572302252,1877.1006665602326,51.19923039339483,54.31082715652883,0,0,1760921571.336492
4.895529041998088,2068.9762337869033,4.43926124740392,5.909041929990053,0,0,1760921571.336492
-47.694944134913385,1811.2298086406663,-30.270750241354108,-34.65017308946699,0,0,1760921571.336492
46.78614844568074,1686.4218673193827,35.06156208459288,41.03044241387397,0,0,1760921571.336492
39.216590935364366,2077.7687385827303,24.90399380493909,36.26954977028072,0,0,1760921571.336492
-41.75598300527781,1823.0852915002033,-27.159153478220105,-29.070242355577648,0,0,1760921571.336492
11.877922259271145,1536.9941645897925,10.161308179609478,13.882508635520935,0,0,1760921571.336492
57.706656316295266,1998.123829126358,38.77902264054865,51.18801069352776,0,0,1760921571.336492
-18.994951874949038,2045.3026670673862,-10.905548270791769,-8.141762203536928,0,0,1760921571.336492
-31.302962629124522,1606.4291471671313,-15.557983815670013,-18.09737588558346,0,0,1760921571.336492
57.1755905225873,1938.9586118273437,44.418791773729026,51.93973058462143,0,0,1760921571.336492
11.803124260157347,2086.5724630784243,7.857529806904495,15.29993071872741,0,0,1760921571.336492
-50.866379297338426,2544.8841129983775,-30.076275443658233,-35.203678282909095,0,0,1760921571.336492
42.67973829433322,2837.613562330138,36.404186168685555,44.65440547093749,0,0,1760921571.336492
34.17894569505006,2989.8237506267615,28.54665636178106,36.09377447236329,0,0,1760921571.336492
-44.95359746739268,2806.968822093215,-30.020176944322884,-34.055528996512294,0,0,1760921571.336492
10.722293172962964,2729.88574410649,10.243585978634655,19.503578268922865,0,0,1760921571.336492
55.48141584265977,3060.4592410898767,43.13600608892739,51.345086491666734,0,0,1760921571.336492
-20.85742205288261,2835.309783957433,-8.631689097732306,-9.432027688249946,0,0,1760921571.336492
-30.375467440113425,2723.7897071787156,-14.791304324753582,-17.169880696572363,0,0,1760921571.336492
54.520261554047465,2964.0521000321023,43.610973383300006,56.04240083601326,0,0,1760921571.336492
9.918214682489634,2886.1013652556576,6.784178519621491,11.402954964898527,0,0,1760921571.336492
-49.82668710965663,2808.7602341719903,-26.20547898951918,-32.93729890976101,0,0,1760921571.336492
44.98725656699389,2705.8793262909167,40.13286642450839,42.75827619340271,0,0,1760921571.336492
30.738237735815346,3059.96183439577,26.57946898508817,32.832581711001694,0,0,1760921571.336492
-43.42023848555982,2813.1471368200146,-30.809295834973454,-26.16434009000659,0,0,1760921571.336492
10.976606369949877,2807.9598955814727,16.253605207428336,15.494405516423285,0,0,1760921571.336492
52.0257482836023,2919.0872828648426,36.804355463944376,44.448710973374546,0,0,1760921571.336492
-19.196906472556293,2859.8809266663156,-10.08651018049568,-10.632535574026406,0,0,1760921571.336492
-28.20632546581328,2637.9664829955436,-16.53409770410508,-16.006771810352802,0,0,1760921571.336492
61.54379367083311,2968.712015376892,44.097160377539694,54.06025385949761,0,0,1760921571.336492
6.873936118558049,3097.3907531523146,8.526971898972988,15.913274311460555,0,0,1760921571.336492
-52.152904882095754,2619.0687685194425,-30.446525539271533,-35.82076177559793,0,0,1760921571.336492
45.41360516194254,2923.7658977094106,30.704578636214137,38.91365903895348,0,0,1760921571.336492
33.41974600404501,3001.9672057828866,25.573435897007585,32.761523611843586,0,0,1760921571.336492
-44.26171597559005,2948.931684511248,-27.76501727104187,-32.32769521698356,0,0,1760921571.336492
10.942947270348668,2705.3968791966327,13.807710636407137,14.49959212820977,0,0,1760921571.336492
52.19778368156403,3033.4459437099285,40.880846415646374,51.03467479534447,0,0,1760921571.336492
-17.27833779528737,2948.8269673124887,-10.531558275222778,-10.165048079565167,0,0,1760921571.336492
-29.159999954514205,2677.639341725502,-17.64858789090067,-16.51165830437094,0,0,1760921571.336492
57.762754815630615,2979.3931696503423,44.29163517523557,56.528587830252945,0,0,1760921571.336492
8.792504795826972,3017.2858360013925,8.84112349525094,19.024871074594557,0,0,1760921571.336492
-51.95843008439988,2746.999526303727,-32.46981141529977,-29.653666748665273,0,0,1760921571.336492
44.575867571868,2762.9128006151877,30.895313533954322,47.58648703619838,0,0,1760921571.336492
34.859607486985624,3134.180149016436,24.649680607952178,33.37860710453242,0,0,1760921571.336492
-42.30200839880854,2814.433662404772,-27.630380872637033,-28.430719463154674,0,0,1760921571.336492
15.6739207142964,2797.0468675107695,12.925094246864319,13.882508635520935,0,0,1760921571.336492
50.7654019985348,3043.835385786835,42.855513592250645,48.57008072454482,0,0,1760921571.336492
-22.08784913830459,2976.9173558796756,-11.305717566050589,-9.129095791839063,0,0,1760921571.336492
-27.278830276802182,2657.320465266239,-14.91098112333566,-15.71879951376468,0,0,1760921571.336492
59.6588840931654,2931.2082986212336,39.92717192694545,52.482016078196466,0,0,1760921571.336492
10.45676027610898,3112.3727923748083,7.318984213285148,18.022577886469662,0,0,1760921571.336492
-46.038168454542756,2762.318156522233,-31.04864943213761,-29.919199645519257,0,0,1760921571.336492
43.99244317878038,2942.5214959871955,35.00546358525753,48.22227002866566,0,0,1760921571.336492
33.28136970568448,2967.2459745942615,24.025117315351963,32.08086181990802,0,0,1760921571.336492
-44.72172367013991,2820.3127851351164,-27.966971868649125,-27.30126967653632,0,0,1760921571.336492
11.264578666538,2749.3444435759448,11.141161968000233,17.970219287090003,0,0,1760921571.336492
52.519415077753365,3064.277678944636,41.79338200483471,43.75308958161622,0,0,1760921571.336492
-19.593335867859423,3080.10119565716,-12.947533646598458,-9.566664086654782,0,0,1760921571.336492
-27.39102727547288,2700.0675217597745,-11.305717566050589,-10.05285108089447,0,0,1760921571.336492
59.85335889086127,3005.4565324415453,44.15699877683073,52.62413227651268,0,0,1760921571.336492
11.055144269019365,3045.4585023676045,8.003385905176401,12.210773355327547,0,0,1760921571.336492
-50.503609001636505,2755.7060134005733,-34.20886489469558,-31.071088831871748,0,0,1760921571.336492
50.21563670504838,2863.7517231204547,37.668272353708744,40.52929581981152,0,0,1760921571.336492
33.569342002272606,3132.747767333407,26.21669868938625,33.30754900537431,0,0,1760921571.336492
-44.74042316991836,2941.997909993399,-31.067348931916058,-28.63641396071762,0,0,1760921571.336492
11.088803368620574,2668.0128392395563,13.643155038356781,16.47799920476973,0,0,1760921571.336492
49.82668710965663,3071.1628347630613,42.6124200951308,44.77782216947526,0,0,1760921571.336492
-21.66524044331163,3056.0237197424285,-14.271458230912685,-7.580777210183442,0,0,1760921571.336492
-23.838122317567468,2717.1214655577205,-13.729172737337649,-11.518891863524914,0,0,1760921571.336492
59.14277789928019,3032.4922692212276,42.848033792339265,51.25532889273018,0,0,1760921571.336492
12.625902250409126,3178.2473901943304,8.01834550499916,16.09278950933367,0,0,1760921571.336492
-48.442924126051366,2847.1727466168813,-31.101008031517267,-33.161692907102406,0,0,1760921571.336492
49.86034620925784,2820.3950629341416,35.43929198011756,45.271488963626325,0,0,1760921571.336492
30.861654434353113,3098.3593872408383,25.113428202457726,30.513843738473952,0,0,1760921571.336492
-42.406725597567856,2809.803666259628,-31.74801072385162,-28.056729467585683,0,0,1760921571.336492
16.246125407516956,2867.6225195745938,9.387148888781667,11.978899558074772,0,0,1760921571.336492
51.20671019330621,3248.8604412577115,42.38428619783372,54.60253935307264,0,0,1760921571.336492
-20.94343975186348,2899.396709598135,-14.349996129982173,-15.131635220721364,0,0,1760921571.336492
-28.034290067851543,2713.9986490947194,-16.339622906409204,-15.139115020632744,0,0,1760921571.336492
60.148810987360775,3113.41248456249,43.08364748954773,54.7296959515661,0,0,1760921571.336492
10.288464778102934,3109.4407108095475,8.680307797156274,16.48547900468111,0,0,1760921571.336492
-42.911612091585994,2801.609545456711,-32.46233161538839,-32.17061941884458,0,0,1760921571.336492
44.77408226951957,2822.197694712784,37.870226951316,44.99847626686096,0,0,1760921571.336492
32.71290491241962,3161.0588099979796,26.1606001900509,34.69131198897958,0,0,1760921571.336492
-44.927418167702854,2817.870630464051,-27.83233547024429,-30.311889140866697,0,0,1760921571.336492
14.705286625772715,2830.990199508611,8.568110798485577,13.145748344250023,0,0,1760921571.336492
55.08872634731233,3189.5344082606025,37.56729505490512,50.18945740535855,0,0,1760921571.336492
-20.603108855895698,2988.1594951464795,-14.776344724930823,-11.743285860866308,0,0,1760921571.336492
-25.681892995722592,2765.9458594792522,-17.917860687710345,-12.10231625661254,0,0,1760921571.336492
59.759861391969025,3071.8734157546423,42.68347819428891,54.26220845710486,0,0,1760921571.336492
9.215113490819931,3100.75292321248,10.116429380141199,16.13766830880195,0,0,1760921571.336492
-47.40697183832526,2813.528606615495,-30.053836043924093,-33.35616770479828,0,0,1760921571.336492
47.06290104240179,2856.309322208632,37.96746435016394,45.53702186048031,0,0,1760921571.336492
31.03368983231485,3113.6219189600088,27.74631777126342,35.562708678655326,0,0,1760921571.336492
-42.62737969495356,2907.3140778043307,-24.642200808040798,-31.77792992349714,0,0,1760921571.336492
15.329849918372929,2722.1179718985222,18.05249708611518,17.846802588552237,0,0,1760921571.336492
54.01163516007364,3117.2309224172495,38.67430544178933,51.05337429512292,0,0,1760921571.336492
-21.115475149825215,3142.624843116384,-13.370142341591418,-7.461100411601365,0,0,1760921571.336492
-21.79987684171647,2723.2698610848747,-13.523478239774704,-11.27205846644938,0,0,1760921571.336492
57.370065320283175,3003.6352011631243,45.77637545764446,50.81402069795877,0,0,1760921571.336492
8.728926496580243,3051.2852664985694,12.741839149035513,11.881662159226835,0,0,1760921571.336492
-51.44232389051467,2829.7822118229233,-31.714351624250412,-33.74885720014572,0,0,1760921571.336492
47.42193143814802,2869.9749166467227,33.8685339987278,45.320107663050294,0,0,1760921571.336492
31.987364321015775,3136.1548161930405,23.995198115706444,33.969511297531426,0,0,1760921571.336492
-43.3529202863574,2934.832261678297,-28.834628658369184,-27.42842627502978,0,0,1760921571.336492
14.735205825418234,2778.6876986282878,14.05454403348267,17.65232779085636,0,0,1760921571.336492
54.516521654091775,3178.3558472930454,43.12478638906032,51.8013542862609,0,0,1760921571.336492
-24.13731431402266,3018.78927578358,-12.581023450940847,-14.50333202816546,0,0,1760921571.336492
-23.954059216193855,2711.268522127066,-15.150334720499814,-13.033551345579326,0,0,1760921571.336492
57.770234615541995,3016.4630580111407,44.919938367791474,50.963616696186364,0,0,1760921571.336492
11.70214696135372,3100.0947008202784,6.484986523166299,15.079276621341705,0,0,1760921571.336492
-47.59770673606545,2806.8641048944555,-30.338068440556526,-34.63895338959992,0,0,1760921571.336492
47.18631774093956,2914.1693144231103,33.75259710010141,45.90727195609361,0,0,1760921571.336492
34.466917991638184,3302.498086422216,24.60854170843959,32.4959907149896,0,0,1760921571.336492
-48.24844932835549,3736.82575792633,-32.035983020439744,-25.670673295855522,0,0,1760921571.336492
15.056837221607566,3686.4680050229654,7.23296651430428,19.009911474771798,0,0,1760921571.336492
51.06459399498999,4117.603671914898,36.6098806662485,46.00450935494155,0,0,1760921571.336492
-22.286063835956156,4094.2479966916144,-15.479445916600525,-13.732912637293339,0,0,1760921571.336492
-26.381254287436604,3671.9347537951544,-14.297637530602515,-14.035844533704221,0,0,1760921571.336492
58.87724500242621,3941.072914206423,42.028995702043176,52.867225773632526,0,0,1760921571.336492
7.801431307569146,4097.415691954084,7.4648403115570545,9.155275091528893,0,0,1760921571.336492
-47.11525964178145,3683.6668199561536,-29.885540545918047,-31.03368983231485,0,0,1760921571.336492
48.32698722742498,3953.8110134555027,35.47295107971877,43.55113498400897,0,0,1760921571.336492
30.914013033732772,4107.012275240384,22.97794532775879,30.906533233821392,0,0,1760921571.336492
-40.79108881670982,3863.933737720363,-30.476444738917053,-27.34988837596029,0,0,1760921571.336492
13.69925353769213,3764.2841034010053,12.236952655017376,21.38848784659058,0,0,1760921571.336492
54.00041546020657,4095.010936282575,37.08858786057681,50.929957596585155,0,0,1760921571.336492
-17.491512092761695,3930.8891666270792,-8.549411298707128,-9.372189288958907,0,0,1760921571.336492
-26.08954209089279,3700.1672585606575,-11.874182359315455,-14.982039222493768,0,0,1760921571.336492
61.24834157433361,3994.377708274871,42.855513592250645,54.59505955316126,0,0,1760921571.336492
11.66848786175251,3968.7893127780408,7.173128115013242,13.527218139730394,0,0,1760921571.336492
-50.159538205713034,3765.843641682528,-32.48477101512253,-30.15107344277203,0,0,1760921571.336492
44.018622478470206,3966.107804509811,33.588041502051055,47.37331273872405,0,0,1760921571.336492
30.442785639315844,3995.032190767117,25.42383989877999,34.68009228911251,0,0,1760921571.336492
-44.082200777716935,3816.1153768869117,-31.201985330320895,-27.454605574719608,0,0,1760921571.336492
13.602016138844192,3826.3477431656793,13.609495938755572,19.27918427158147,0,0,1760921571.336492
48.914151520468295,3924.755730699748,36.467764467932284,48.891712120734155,0,0,1760921571.336492
-20.973358951509,3871.1517446348444,-15.535544415935874,-11.881662159226835,0,0,1760921571.336492
-24.690819507464767,3696.797608700581,-13.751612137071788,-12.966233146376908,0,0,1760921571.336492
57.68421691656113,3968.4452419821173,41.11646011285484,55.384178443811834,0,0,1760921571.336492
8.642908797599375,4055.0014865566045,7.977206605486572,10.157568279653788,0,0,1760921571.336492
-52.878445473499596,3650.1498365532607,-32.05468252021819,-31.650773325003684,0,0,1760921571.336492
49.647171911783516,3812.349297631532,37.45509805623442,44.6506655709818,0,0,1760921571.336492
35.562708678655326,4127.77993969433,24.98627160396427,33.67405920103192,0,0,1760921571.336492
-47.84080023318529,3867.4006249792874,-26.325155788101256,-36.29946896992624,0,0,1760921571.336492
16.003031910397112,3618.6374395266175,11.320677165873349,19.062270074151456,0,0,1760921571.336492
47.78470173384994,4004.041609760374,37.82534815184772,52.26136198081076,0,0,1760921571.336492
-24.15227391384542,3956.039993829094,-13.418761041015387,-9.779838384129107,0,0,1760921571.336492
-20.12440166156739,3735.557931841351,-12.782978048548102,-10.557737574912608,0,0,1760921571.336492
56.01248163636774,3976.4261884875596,40.26002302300185,53.96301646064967,0,0,1760921571.336492
6.466287023387849,3947.198870333843,9.574143886566162,13.25046554300934,0,0,1760921571.336492
-47.54908803664148,3725.235807963647,-29.74342434760183,-34.12284719571471,0,0,1760921571.336492
48.63739892374724,3865.657831599936,36.811835263855755,46.73378984630108,0,0,1760921571.336492
32.24915731791407,4138.060924672522,23.983978415839374,30.502624038606882,0,0,1760921571.336492
-46.25134275201708,3738.0524451117963,-31.85646782256663,-31.949965321458876,0,0,1760921571.336492
18.340469382703304,3745.1171161280945,9.215113490819931,19.058530174195766,0,0,1760921571.336492
52.39412842923775,1126.856165999081,36.82492491370067,50.82337044784799,0,0,1760921571.336492
-22.149557487573475,955.8305410253815,-15.305540568660945,-7.792081557679921,0,0,1760921571.336492
-21.685809893067926,746.9870476997457,-13.757221987005323,-9.654551735613495,0,0,1760921571.336492
58.744478553999215,1095.0707562756725,41.7802923549898,50.688734049443156,0,0,1760921571.336492
7.3058945634402335,1150.1407831232063,5.1292727892287076,16.098399359267205,0,0,1760921571.336492
-50.8196305478923,726.0436079478823,-32.70355516253039,-31.66012307489291,0,0,1760921571.336492
51.507772139739245,860.3583749565296,36.90720271272585,47.19192759087309,0,0,1760921571.336492
32.69233546266332,1079.5277320598252,23.5482800710015,29.91732969554141,0,0,1760921571.336492
-47.438760987948626,979.9678553394042,-33.361777554731816,-31.24873407976702,0,0,1760921571.336492
18.046887236181647,805.4267244073562,14.572520177345723,20.567579806316644,0,0,1760921571.336492
49.27131196623668,1125.457443415653,39.94774137670174,47.58461708622053,0,0,1760921571.336492
-24.135444364044815,957.0759277106263,-19.198776422534138,-5.84733358072117,0,0,1760921571.336492
-22.613305082079023,772.6764204953797,-15.817906862590462,-12.354759503621608,0,0,1760921571.336492
59.31668324721977,1037.3117413599975,43.885856030043215,52.970073022414,0,0,1760921571.336492
4.901138891931623,1219.130717605818,8.465263549704105,11.206610217224807,0,0,1760921571.336492
-46.698260796722025,802.4198448429815,-34.569765240419656,-34.034959546756,0,0,1760921571.336492
48.7813850720413,838.8801295110025,37.24379370873794,44.256106125656515,0,0,1760921571.336492
32.221108068246394,1149.9014295260422,24.587972258683294,33.50015385309234,0,0,1760921571.336492
-44.33090412477031,995.8886094507761,-33.53381295269355,-30.82612538477406,0,0,1760921571.336492
16.75662175146863,792.8157817567699,8.981369743589312,17.706556340213865,0,0,1760921571.336492
54.14066170854494,1090.601575828623,35.07839163439348,49.80237775994465,0,0,1760921571.336492
-21.18840319896117,1117.0950271147303,-13.615105788689107,-9.138445541728288,0,0,1760921571.336492
-25.885717543307692,750.842884554062,-14.29202768066898,-8.442824149969965,0,0,1760921571.336492
58.8230164530687,990.5816914136522,39.083824486937374,51.100123044569045,0,0,1760921571.336492
7.979076555464417,1157.0857773409225,9.130965741816908,12.351019603665918,0,0,1760921571.336492
-44.41318192379549,736.2647545267828,-31.031819882337004,-33.2196613564156,0,0,1760921571.336492
47.24428619025275,924.9576668911614,34.28927274374291,46.713220396544784,0,0,1760921571.336492
36.14052322180942,1153.847023979295,22.893797578755766,35.16440933337435,0,0,1760921571.336492
-45.35937661258504,827.1555431499146,-32.92794915987179,-27.037606729660183,0,0,1760921571.336492
15.971242760773748,819.2419148436747,11.44596381438896,22.76290108030662,0,0,1760921571.336492
48.5981299742125,1092.314450008329,38.3695035954006,47.61453628586605,0,0,1760921571.336492
-21.786787191871554,1158.720113621559,-6.296121575403959,-11.48336281394586,0,0,1760921571.336492
-23.56697957077995,674.5638850578107,-13.177537493873388,-10.24919582856819,0,0,1760921571.336492
55.165394296403974,974.5524802035652,42.311358148697764,48.2278798785992,0,0,1760921571.336492
3.1920046121813357,1058.8909641043283,5.353666786570102,10.496029225643724,0,0,1760921571.336492
-51.518991839606315,845.7690252293833,-35.35140433115885,-27.680869522038847,0,0,1760921571.336492
47.868849482852966,901.0634460742585,32.52777986461297,44.34960362454876,0,0,1760921571.336492
26.547679835464805,1281.2354962700047,27.16102342819795,31.57784527586773,0,0,1760921571.336492
-48.5607309746556,819.2344350437634,-31.263693679589778,-33.20096185663715,0,0,1760921571.336492
13.398191591259092,765.2227998836897,17.429803743492812,18.806086927186698,0,0,1760921571.336492
50.58401685068384,1126.8860851987265,36.0358060230501,48.42235467629507,0,0,1760921571.336492
-19.658784117083997,1118.920098293107,-11.965809908229858,-16.405071155633777,0,0,1760921571.336492
-18.144124635029584,794.6408529351465,-10.746602522674948,-13.641285088378936,0,0,1760921571.336492
58.86789525253698,931.8802217091434,45.2621392137371,55.28133119503036,0,0,1760921571.336492
4.781462093349546,1071.9020760501735,2.21589072374627,10.039761431049556,0,0,1760921571.336492
-47.19940739078447,808.9983288650401,-31.435729077551514,-33.12616385752335,0,0,1760921571.336492
48.88236237084493,1010.8033304740675,36.600530916359276,47.55469788657501,0,0,1760921571.336492
30.35115809040144,1131.800313740503,28.43632931308821,31.903216572012752,0,0,1760921571.336492
-44.59269712166861,859.9133268618025,-30.34367829049006,-32.995267359074205,0,0,1760921571.336492
19.89813771424815,857.4749120906927,13.383231991436332,19.06787992408499,0,0,1760921571.336492
55.20279329596087,1199.7617757353,37.63274330412969,43.16031543863937,0,0,1760921571.336492
-24.060646364931017,1036.5375820691697,-11.341246615629643,-13.562747189309448,0,0,1760921571.336492
-21.685809893067926,792.4904104606248,-12.612812600564212,-12.006948807742447,0,0,1760921571.336492
57.3794150701724,1014.0084247360937,45.28083871351555,54.91108109941706,0,0,1760921571.336492
4.983416690956801,1142.4889478138648,5.03203539038077,12.384678703267127,0,0,1760921571.336492
-46.98623309331015,825.6969821671955,-30.186602492351085,-35.837591325398535,0,0,1760921571.336492
48.96090026991442,999.7033074055798,40.669542068149894,44.41318192379549,0,0,1760921571.336492
29.483501300681382,1215.8807445443235,20.047733712475747,29.51716040028259,0,0,1760921571.336492
-45.9652404054068,895.3600986418314,-29.008534006308764,-32.47542126523331,0,0,1760921571.336492
17.5457406421192,830.5064935102127,17.788834139239043,20.25716810999438,0,0,1760921571.336492
49.880915659014136,1240.1003366573714,38.06657169898972,47.34526348905638,0,0,1760921571.336492
-25.90067714313045,944.8988134548999,-15.350419368129224,-13.016721795778722,0,0,1760921571.336492
-20.870511702727526,856.7157123996876,-12.6539515000768,-9.08982684230432,0,0,1760921571.336492
60.12450163764879,1070.8923030621372,43.17527503846213,54.4884724044241,0,0,1760921571.336492
5.290088487323374,1060.6487170835026,7.728503258433193,9.542354736942798,0,0,1760921571.336492
-46.88525579450652,800.5124958655797,-30.83360518468544,-33.788126149680465,0,0,1760921571.336492
47.59209688613191,1028.3397213662975,39.27455938467756,45.56507111014798,0,0,1760921571.336492
32.03037317050621,1146.0904714711942,26.37938433745876,29.476021500770003,0,0,1760921571.336492
-44.8544901185669,932.3327496037818,-31.420769477728754,-29.300246202852577,0,0,1760921571.336492
20.3244863091968,889.9970821053721,10.806440921965986,21.18466329900548,0,0,1760921571.336492
52.45770672848448,1218.9960812074132,42.288918748963624,51.7097267373465,0,0,1760921571.336492
-25.788480144459754,963.73668953171,-14.725856075529009,-13.90681798523292,0,0,1760921571.336492
-20.956529401708394,810.5129883470945,-11.89101190911606,-14.378045379649848,0,0,1760921571.336492
56.90070787584409,1154.2546730744652,44.308464725036174,54.51091180415824,0,0,1760921571.336492
3.951204303186387,1136.4377896855585,0.7610696409828961,9.676991135347635,0,0,1760921571.336492
-48.37747587682679,934.4083940791897,-29.490981100592762,-30.063185793813318,0,0,1760921571.336492
46.19711420265958,930.0140116312541,35.21676793275401,47.69681408489123,0,0,1760921571.336492
28.155836816411465,1176.544476810377,20.833112703170627,34.8876567366533,0,0,1760921571.336492
-48.88984217075631,970.4236306524836,-31.286133079323918,-34.00504034711048,0,0,1760921571.336492
16.072220059577376,1010.9491865723394,15.769288163166493,20.107572111766785,0,0,1760921571.336492
49.83603685954586,1073.3381976331584,34.89513653656468,42.659168844576925,0,0,1760921571.336492
-23.49592147162184,1016.6113951052539,-16.24051555758342,-15.144724870566279,0,0,1760921571.336492
-21.293120397720486,883.3811990837567,-13.592666388954967,-9.613412836100906,0,0,1760921571.336492
57.29339737119153,1128.1501713837497,42.47591374674812,51.915421234909445,0,0,1760921571.336492
1.168718736153096,1068.831618186552,4.444871097337455,12.530534801539034,0,0,1760921571.336492
-44.289765225257725,912.3130651409738,-29.958468595054,-31.17019618069753,0,0,1760921571.336492
50.43816075241193,951.6904717744328,38.95292798848823,42.35623694816604,0,0,1760921571.336492
28.993574406486005,1257.62924774969,24.543093459215015,29.59943819930777,0,0,1760921571.336492
-41.5184993580915,944.2742501622997,-32.946648659650236,-31.60776447551325,0,0,1760921571.336492
17.94590993737802,1027.344907978084,16.28913425700739,21.835405891295522,0,0,1760921571.336492
50.94304724643007,1176.2752040135674,41.67183525627479,45.6323893093504,0,0,1760921571.336492
-23.320146173704416,1022.4344193362631,-13.05412079533562,-13.645024988334626,0,0,1760921571.336492
-18.559253530111164,772.1752739013173,-11.662878011818975,-12.403378203045577,0,0,1760921571.336492
61.33996912324801,1129.64239146607,45.64360900921747,51.61248933849856,0,0,1760921571.336492
1.3931127334944904,1159.4718335126527,8.053874554578215,10.028541731182486,0,0,1760921571.336492
-47.40510188834742,953.7324571502395,-28.600884911138564,-31.996714070905,0,0,1760921571.336492
47.947387381922454,1070.9708409612067,35.15692953346297,43.874636330176145,0,0,1760921571.336492
31.723701374139637,1173.6946730441414,23.619338170159608,29.872450896073133,0,0,1760921571.336492
-47.34526348905638,924.0675707017072,-30.35863789031282,-36.7763062142767,0,0,1760921571.336492
16.393851455766708,917.5863240784965,13.551527489442378,22.452489383984357,0,0,1760921571.336492
50.15018845582381,1198.4490708508529,39.58871098095551,44.4842400229536,0,0,1760921571.336492
-25.14895725203678,1024.981291206088,-14.789434374775738,-15.212043069768697,0,0,1760921571.336492
-19.408210820052773,902.2003756607883,-9.654551735613495,-9.83032703353092,0,0,1760921571.336492
58.363008758518845,1071.8758967504837,39.828064578119665,52.53250472759828,0,0,1760921571.336492
7.45549056166783,1282.4883627551608,4.026002302300185,9.329180439468473,0,0,1760921571.336492
-44.56277792202309,897.9967281105928,-30.672789486590773,-33.88162364857271,0,0,1760921571.336492
51.78078483650461,973.3145733182319,33.58243165211752,45.21726041426882,0,0,1760921571.336492
30.713928386103362,1221.9954809718765,17.291427445132285,29.057152705732733,0,0,1760921571.336492
-46.298091501463205,965.9245310057886,-34.06113884644583,-33.91902264812961,0,0,1760921571.336492
18.521854530554265,837.1859548310749,14.119992282707244,20.848072302993387,0,0,1760921571.336492
49.555544362869114,1289.384738273453,36.02458632318303,42.5581915457733,0,0,1760921571.336492
-20.7695344039239,1023.8555813194253,-14.542600977700204,-10.432450926396996,0,0,1760921571.336492
-16.34523275634274,792.7970822569914,-10.080900330562145,-11.270188516471535,0,0,1760921571.336492
54.95969979884103,1144.4748346903361,39.5176528817974,54.690427002031356,0,0,1760921571.336492
5.44342438550666,1156.5547115472145,3.9250250034965575,11.027095019351691,0,0,1760921571.336492
-45.61368980957195,857.9274399853311,-31.17393608065322,-27.000207730103284,0,0,1760921571.336492
46.09613690385595,1013.776550938841,39.22594068525359,45.25465941382572,0,0,1760921571.336492
29.431142701301724,1126.5981129021384,21.89524429058656,30.463355089072138,0,0,1760921571.336492
-48.52707187505439,959.3984055831097,-30.616690987255424,-31.99297417094931,0,0,1760921571.336492
19.206256222445518,878.238836644683,15.10358597105369,23.59315887046978,0,0,1760921571.336492
49.7088802610524,1178.5079242871143,35.34766443120316,48.295198077801615,0,0,1760921571.336492
-24.457075760234147,1183.8746807235293,-17.91225083777681,-13.90307808527723,0,0,1760921571.336492
-17.642978040967137,834.4446081635542,-12.107926106546074,-5.757575981784612,0,0,1760921571.336492
57.8244631648995,1073.6523492294364,43.26503263739869,53.108449320774525,0,0,1760921571.336492
3.3640400101430714,1255.2207521782257,6.008149278815836,10.088380130473524,0,0,1760921571.336492
-47.83145048329607,846.4085481218062,-29.92480949545279,-30.36985759017989,0,0,1760921571.336492
51.67980753770098,986.9203293570317,39.69342817971483,45.39677561214194,0,0,1760921571.336492
30.167902992572635,1181.2305714548565,18.144124635029584,30.968241583090276,0,0,1760921571.336492
-51.17866094363853,973.879298211541,-34.08357824617997,-32.11265096953139,0,0,1760921571.336492
16.850119250360876,943.077482176479,13.540307789575309,24.086825664620847,0,0,1760921571.336492
47.509819087106735,1234.243653326761,32.85689106071368,47.838930283207446,0,0,1760921571.336492
-24.434636360500008,1087.0000521712936,-18.3610388324596,-18.791127327363938,0,0,1760921571.336492
-23.350065373349935,882.4798831944354,-12.063047307077795,-4.545848396141082,0,0,1760921571.336492
64.43660628655925,1186.2046383959241,46.36540970066562,50.86076944740489,0,0,1760921571.336492
4.074621001724154,1256.7428914601915,4.21673720004037,7.578907260205597,0,0,1760921571.336492
-44.712373920250684,920.7427996410988,-29.303986102808267,-30.190342392306775,0,0,1760921571.336492
50.53539815125987,1080.6983207459562,40.12725657457486,48.87114267097786,0,0,1760921571.336492
29.62187759904191,1097.187539650593,24.4009772608988,29.902370095718652,0,0,1760921571.336492
-48.57943047443405,973.553926915396,-29.722854897845536,-31.020600182469934,0,0,1760921571.336492
18.68641012860462,946.0058238417841,16.610765653196722,26.143770640250295,0,0,1760921571.336492
49.35732966521755,1300.4137032427825,36.69776831520721,50.277345054317266,0,0,1760921571.336492
-23.09575217636302,1118.2431764011271,-16.588326253462583,-14.561300477478653,0,0,1760921571.336492
-17.388664843980223,913.794065523427,-9.590973436366767,-10.447410526219755,0,0,1760921571.336492
59.182046848814934,1224.6358503405936,44.622616321314126,55.38978829374537,0,0,1760921571.336492
7.489149661269039,1218.745507910382,6.845886868890375,13.49542899010703,0,0,1760921571.336492
-43.62780293310061,853.8808682332747,-26.106371640693396,-30.02578679425642,0,0,1760921571.336492
49.27131196623668,1078.263645874802,43.29495183704421,47.042331592645496,0,0,1760921571.336492
31.891996872145683,1269.3837533104233,24.70016925735399,26.678576333913952,0,0,1760921571.336492
-45.505232710856944,991.5503255021758,-27.94640241889283,-33.5899114520289,0,0,1760921571.336492
21.023847600910813,1032.289055719506,19.18007692275569,22.658183881547302,0,0,1760921571.336492
50.311004153918475,1252.6738803084008,40.79669866664335,44.20000762632117,0,0,1760921571.336492
-25.20879565132782,1192.9289785162546,-14.770734874997288,-14.968949572648853,0,0,1760921571.336492
-16.831419750582427,906.2095484132878,-12.470696402247995,-8.712096946779639,0,0,1760921571.336492
58.007718262728304,1176.050810016226,44.39448242401704,55.42718729330227,0,0,1760921571.336492
3.4500577091239393,1273.8230145578273,4.1269796011038125,8.64103884762153,0,0,1760921571.336492
-46.91517499415204,927.8598292567767,-32.26224696775898,-33.818045349325985,0,0,1760921571.336492
50.07165055675432,1093.7655311911367,40.149695974309,45.6323893093504,0,0,1760921571.336492
30.43717578938231,1399.8015445652418,22.31037318566814,32.587618263904005,0,0,1760921571.336492
-46.06995760416612,1032.98841701122,-31.921916071791202,-31.6638629748486,0,0,1760921571.336492
20.31326660932973,940.6428073053248,17.51956134242937,24.595452058594674,0,0,1760921571.336492
51.73590603703633,1275.8313408340327,35.063432034570724,47.539738286752254,0,0,1760921571.336492
-26.514020735863596,1118.4638304985128,-17.725255839992315,-12.979322796221823,0,0,1760921571.336492
-15.451396666932851,876.9710105597042,-10.309034227859229,-11.255228916648775,0,0,1760921571.336492
61.05947662657127,1244.2254463084973,44.08407072769478,55.187833696138114,0,0,1760921571.336492
7.45549056166783,1302.9343958129175,0.20382454758509994,11.356206215452403,0,0,1760921571.336492
-45.15742201497778,899.1186980972998,-31.903216572012752,-26.566379335243255,0,0,1760921571.336492
51.17118114372715,1074.175935223233,40.81913806637749,46.04751820443198,0,0,1760921571.336492
32.11265096953139,1449.246761879418,24.023247365374118,30.246440891642123,0,0,1760921571.336492
-46.78801839565858,1044.6456851731054,-30.81490568490699,-32.80453246133402,0,0,1760921571.336492
25.294813350308686,887.5811067339964,20.051473612431437,24.71512885717675,0,0,1760921571.336492
52.53250472759828,1296.8346189851873,35.1457098335959,45.838083806913346,0,0,1760921571.336492
-25.11155825247988,1186.6347268908285,-14.213489781599492,-12.983062696177512,0,0,1760921571.336492
-19.019261224661022,987.1933420537971,-9.299261239822954,-7.122639465611428,0,0,1760921571.336492
56.59777597943321,1161.7008138862438,43.078037639614195,52.79803762445226,0,0,1760921571.336492
6.041808378417045,1158.3124645263888,5.166671788785607,9.44137743813917,0,0,1760921571.336492
-43.0032396405004,1051.6205985904671,-29.57325889961794,-30.927102683577687,0,0,1760921571.336492
50.344663253519684,1063.8014527461492,38.37324349535629,45.23222001409158,0,0,1760921571.336492
28.107218116987497,1339.2002056832425,17.93469023751095,31.839638272766024,0,0,1760921571.336492
-42.16550205042586,1026.2528571910225,-30.190342392306775,-31.1814158805646,0,0,1760921571.336492
24.438376260455698,992.320744893048,17.788834139239043,23.428603272419423,0,0,1760921571.336492
52.48762592813,1240.5117256524973,37.064278510864824,43.94569442933425,0,0,1760921571.336492
-24.29999996209517,1291.15745085245,-16.838899550493807,-13.09151979489252,0,0,1760921571.336492
-20.062693312298506,888.6133191217668,-10.193097329232842,-7.249796064104885,0,0,1760921571.336492
57.906740963924676,1218.057366318535,38.212427797261626,54.06960360938683,0,0,1760921571.336492
-1.1986379357986152,1245.9570199879818,2.7656560172326863,8.513882249128073,0,0,1760921571.336492
-45.916621705982834,999.8155044042505,-28.963655206840485,-30.152943392749876,0,0,1760921571.336492
50.38954205298796,1189.0469623622485,39.52513268170878,46.91143509419635,0,0,1760921571.336492
30.897183483932167,1508.898166172672,17.48590224282816,27.1423239284195,0,0,1760921571.336492
-50.17636775551364,1795.843860222958,-31.009380482602865,-31.60028467560187,0,0,1760921571.336492
-24.898383955005556,1409.8151266966015,-20.66107730520889,-18.64527122909203,0,1,1760921582.354941
-14.565040377434343,1075.2062776610255,-10.552127724979073,-5.967010379303247,0,1,1760921582.354941
58.8604154526256,1152.3940728465095,44.15512882685289,51.934120734687895,0,1,1760921582.354941
4.856260092463344,1332.8479856085032,0.3534205458126962,8.697137346956879,0,1,1760921582.354941
-46.0400384045206,1072.3602137947455,-23.361285073217005,-26.166210039984435,0,1,1760921582.354941
50.02303185733035,1233.9126721806824,41.466140758711845,46.55240469845012,0,1,1760921582.354941
28.129657516721636,1605.6811671759933,19.04918042430654,31.764840273652226,0,1,1760921582.354941
-48.90106187062338,2095.3481383244507,-29.887410495895892,-35.49352052947506,0,1,1760921582.354941
29.674236198421568,1922.5572805716656,22.605825282167643,25.51546744769439,0,1,1760921582.354941
46.56736429827288,2307.467784011271,33.6647094511427,43.474467034917325,0,1,1760921582.354941
-27.725748321507126,2204.2241058344953,-13.652504788246006,-17.05955364787951,0,1,1760921582.354941
-15.443916867021471,2044.4555797274224,-6.22132357629016,-5.04699499020353,0,1,1760921582.354941
55.32247009454295,2340.330284921918,40.75181986717507,54.768964901100844,0,1,1760921582.354941
1.2584763350896537,2342.125436900649,3.461277408991009,6.786048469599336,0,1,1760921582.354941
-43.59788373345509,2072.923698190134,-30.0332665941678,-26.607518234755844,0,1,1760921582.354941
52.12111573247239,2150.1040135757066,39.461554382462054,52.61478252662346,0,1,1760921582.354941
25.22001535119489,2333.359111404512,24.442116160411388,31.55914577608928,0,1,1760921582.354941
-55.127995296847075,2255.0830053319223,-29.838791796471924,-34.618383939843625,0,1,1760921582.354941
23.675436669494957,2242.786214277614,22.486148483585566,30.34367829049006,0,1,1760921582.354941
47.21062709065154,2182.3307314938866,37.28867250820622,41.92988835321739,0,1,1760921582.354941
-27.834205420222133,2105.8422976001166,-16.981015748810023,-12.104186206590384,0,1,1760921582.354941
-18.858445526566356,1971.8379422877915,-10.155698329675943,-4.276575599331409,0,1,1760921582.354941
60.03848393866792,2280.4694462311454,42.13932275073603,52.81299722427502,0,1,1760921582.354941
1.4379915329627693,2352.959927072283,1.40433243336156,4.542108496185392,0,1,1760921582.354941
-46.03255860460922,2042.2116397540085,-28.32039241446182,-34.02373984688893,0,1,1760921582.354941
51.964039934333414,2250.019180791918,37.98429389996454,45.924101505894214,0,1,1760921582.354941
26.540200035553426,2321.0137016507797,22.130857987795025,30.33619849057868,0,1,1760921582.354941
-49.132935667876154,2055.316249198746,-33.847964548971504,-33.28697955561802,0,1,1760921582.354941
30.680269286502153,2047.7579113882966,23.20794917503372,33.399176554288715,0,1,1760921582.354941
45.13498261524364,2409.0472067077644,37.61030390439555,46.275652101729065,0,1,1760921582.354941
-27.744447821285576,2422.0022201542743,-17.45972294313833,-12.351019603665918,0,1,1760921582.354941
-16.924917249474674,2747.5885605467483,-9.546094636898488,-2.5450019198469818,0,1,1760921582.354941
58.98757205111906,3220.210937647149,43.97561362897977,53.130888720508665,0,1,1760921582.354941
4.078360901679844,3331.106451133266,3.82778760464862,3.3154213107191026,0,1,1760921582.354941
-45.38555591227487,3029.857509702444,-29.13569060480222,-20.855552102904767,0,1,1760921582.354941
52.53624462755397,3118.4258204530925,39.55879178130999,46.709480496589094,0,1,1760921582.354941
25.081639052834362,3413.395469858311,22.34403228526935,26.996467830147594,0,1,1760921582.354941
-49.1890341672115,3051.530229945667,-30.919622883666307,-32.53525966452435,0,1,1760921582.354941
24.243901462759823,2962.415893801488,22.063539788592607,25.93433624273166,0,1,1760921582.354941
42.80502494284883,3357.495185220614,38.54153899336234,42.700307744089514,0,1,1760921582.354941
-26.929149630945176,3249.673869498074,-17.725255839992315,-12.575413601007313,0,1,1760921582.354941
-17.758914939593524,3053.800349218771,-10.047241230960935,-5.686517882626504,0,1,1760921582.354941
58.05259706219658,3301.9988097781315,40.93881486495957,54.1556213083677,0,1,1760921582.354941
-0.241223547141999,3037.0381176173687,1.8867795276455581,9.811627533752471,0,1,1760921582.354941
-47.2629856900312,2997.413877586834,-26.839392032008618,-26.38312423741445,0,1,1760921582.354941
50.55409765103832,3181.07662451081,39.9627009765245,47.75665248418227,0,1,1760921582.354941
27.13858402846381,3352.696893577464,24.890904155094177,28.33535201428458,0,1,1760921582.354941
-51.80696413619444,3059.694431548938,-36.278899520169944,-33.010226958896965,0,1,1760921582.354941
26.577599035110325,3050.3820806592703,21.281900697853416,28.997314306441694,0,1,1760921582.354941
48.287718277890235,3339.805458430201,30.38481719000265,41.73167365556583,0,1,1760921582.354941
-26.37938433745876,3157.9378634849563,-17.781354339327663,-16.595806053373963,0,1,1760921582.354941
-12.141585206147283,3091.670576170087,-8.296968051698059,-5.925871479790658,0,1,1760921582.354941
58.60984215559438,3297.5707682305947,42.36745664803311,55.83109648851678,0,1,1760921582.354941
-1.1350596365518868,3211.332415152341,-1.0939207370392978,5.8548133806325495,0,1,1760921582.354941
-43.863416630309075,2990.8241738649085,-24.860984955448657,-25.810919544193894,0,1,1760921582.354941
53.923747511114925,3092.5083137601614,39.042685587424785,48.78512497199699,0,1,1760921582.354941
28.125917616765946,3305.2338232398033,16.621985353063792,24.2887802622281,0,1,1760921582.354941
-52.13981523225084,3000.540433949791,-34.38651014259085,-30.84482488455251,0,1,1760921582.354941
30.096844893414527,3133.5387561740354,22.27297418611124,28.40641011344269,0,1,1760921582.354941
49.73505956074223,3342.554284897633,34.33415154321119,43.848457030486315,0,1,1760921582.354941
-29.11325120506808,3207.439179298468,-18.043147336225957,-16.554667153861374,0,1,1760921582.354941
-17.08947284752503,2909.963796922937,-5.84359368076548,-2.7469565174542367,0,1,1760921582.354941
57.181200372520834,3247.5795255228877,42.07200455153361,54.361315805930644,0,1,1760921582.354941
-1.5127895320765674,3262.5241657458246,1.7184840296395123,7.406871862243861,0,1,1760921582.354941
-43.68390143243596,3079.740295311436,-28.484948012512177,-27.291919926647097,0,1,1760921582.354941
50.681254249531776,3105.1117766108364,36.604270816314965,51.118822544347495,0,1,1760921582.354941
26.42052323697135,3329.1355238566175,20.167410511057824,29.2179684038274,0,1,1760921582.354941
-47.917468182276934,3078.4350702269003,-32.38566366629675,-28.81405920861289,0,1,1760921582.354941
23.032173877116293,2961.4210804132745,23.009734477382153,31.884517072234303,0,1,1760921582.354941
45.901662106160074,3326.1323841921985,34.86895723687485,42.58063094550744,0,1,1760921582.354941
-28.585925311315805,3263.724673631601,-17.990788736846298,-16.046040759887546,0,1,1760921582.354941
-12.571673701051623,3216.4037194922566,-4.418691797647625,-5.705217382404953,0,1,1760921582.354941
56.57533657969907,3280.76739772968,42.19542125007138,49.27131196623668,0,1,1760921582.354941
1.164978836197406,2973.560795669444,2.5113428202457726,8.21469025267288,0,1,1760921582.354941
-44.723593620117754,2919.369645311497,-28.926256207283586,-28.473728312645108,0,1,1760921582.354941
50.284824854228646,3093.271253351122,36.79126581409946,47.883809082675725,0,1,1760921582.354941
28.35031161410734,3342.80859809462,21.13604459958151,26.102631740737706,0,1,1760921582.354941
-53.03365132166073,3059.0885677561164,-36.43223541835323,-32.53899956448004,0,1,1760921582.354941
30.691488986369222,2930.477148179896,23.035913777071983,28.679422810208052,0,1,1760921582.354941
43.69138123234734,3335.73644727841,34.03869944671169,42.662908744532615,0,1,1760921582.354941
-28.74674100941047,3163.708529116586,-18.177783734630793,-17.310126944910735,0,1,1760921582.354941
-15.92262406134978,2994.6837506191805,-5.84359368076548,-4.018522502388805,0,1,1760921582.354941
59.159607449080795,3245.3056663498282,42.3337975484319,53.99480561027303,0,1,1760921582.354941
-1.0714813373051584,3268.115316179581,3.345340510364622,6.183924576733261,0,1,1760921582.354941
-44.660015320871025,2921.2096760896966,-27.62103112274781,-30.42221618955955,0,1,1760921582.354941
53.29918421851471,3121.470099017024,38.702354691457,49.75375906052068,0,1,1760921582.354941
23.839992267545313,3325.343265301548,17.88981143804267,23.88861096696928,0,1,1760921582.354941
-47.98478638147935,3017.74771364592,-34.83529813727364,-29.62935739895329,0,1,1760921582.354941
27.733228121418506,3024.733846763149,21.611011893954128,28.989834506530315,0,1,1760921582.354941
46.97501339344308,3362.888120956719,31.25247397972271,46.21207380248234,0,1,1760921582.354941
-29.494721000548452,3118.0406107576564,-14.68097727606073,-14.176090782042593,0,1,1760921582.354941
-12.552974201273173,2969.4319461183622,-6.8234474691562355,-2.167272024322301,0,1,1760921582.354941
56.88574827602133,3168.33852526173,45.28457861347124,52.16973443189636,0,1,1760921582.354941
0.14024624833837152,3294.8107220632955,-1.890519427601248,5.409765285905451,0,1,1760921582.354941
-40.86775676580146,3103.9037889251485,-27.96136201871559,-26.884270831476897,0,1,1760921582.354941
55.73385908966884,3105.8335773022845,33.91902264812961,48.57195067452267,0,1,1760921582.354941
27.793066520709544,3162.3958242321387,19.224955722223967,26.921669831033796,0,1,1760921582.354941
-48.347556677181274,2997.526074585505,-33.391696754377335,-36.275159620214254,0,1,1760921582.354941
26.77955363271758,3082.765874375589,18.918283925857395,28.638283910695463,0,1,1760921582.354941
43.13787603890523,3281.4218802219257,37.26623310847208,43.32861093664542,0,1,1760921582.354941
-32.179969168733805,3131.369614199735,-15.859045762103051,-16.412550955545157,0,1,1760921582.354941
-10.413751426618546,2936.92099580355,-2.458984220866114,-6.9019853682257235,0,1,1760921582.354941
55.38978829374537,3294.5190098667517,44.78717191936448,56.0068717864342,0,1,1760921582.354941
1.3968526334501803,3268.9754931693897,-1.2958753346465528,2.773135817144066,0,1,1760921582.354941
-43.53056553425267,2992.555747544393,-28.38397071370855,-29.18804920418188,0,1,1760921582.354941
51.63866863818839,2997.690630183555,37.15403610980138,48.16430157935247,0,1,1760921582.354941
26.495321236085147,3267.116762891412,21.364178496878594,26.02409384166822,0,1,1760921582.354941
-49.136675567831844,3039.5737697873265,-32.236067668069154,-32.610057663638145,0,1,1760921582.354941
25.09659865265712,3029.2030272101983,24.505694459658116,29.958468595054,0,1,1760921582.354941
46.39158900035545,3308.240702804178,30.04448629403487,42.651689044665545,0,1,1760921582.354941
-30.34741819044575,3200.3632885823026,-18.488195430953056,-20.30952670937404,0,1,1760921582.354941
-14.998868772294372,2898.388806560077,-3.5959138073958457,-3.83152750460431,0,1,1760921582.354941
60.05718343844637,3218.980510561727,47.34900338901207,48.84496337128803,0,1,1760921582.354941
2.6459792186506093,3223.430991508998,5.215290488209575,2.7619161172769964,0,1,1760921582.354941
-44.618876421358436,2916.430083946325,-24.528133859392256,-24.206502463202924,0,1,1760921582.354941
52.49510572804138,3123.3587484946474,37.838437801692635,49.39472866477445,0,1,1760921582.354941
26.906710231211036,3282.345635510981,19.030480924528092,27.291919926647097,0,1,1760921582.354941
-53.66195451421663,3217.8024420756847,-35.381323530804366,-33.017706758808345,0,1,1760921582.354941
30.7737667853944,2965.1572404690087,23.742754868697375,28.915036507416517,0,1,1760921582.354941
45.048964916262776,3136.186605342664,37.864617101382464,43.493166534695774,0,1,1760921582.354941
-28.455028812866658,3124.6116149798036,-21.248241598252207,-17.657937640789896,0,1,1760921582.354941
-11.999469007831067,2915.0687603624538,-6.082947277929634,-2.1822316241450608,0,1,1760921582.354941
58.19845316046849,3399.3035268252715,43.478206934873015,53.05983062135056,0,1,1760921582.354941
0.5852943430654705,3207.4466590983793,3.745509805623442,5.2526894877664745,0,1,1760921582.354941
-44.16260862676427,2829.578387275338,-26.476621736306697,-23.847472067456692,0,1,1760921582.354941
52.700800225604326,3086.3935773326084,40.202054573688656,46.8179375953041,0,1,1760921582.354941
26.39808383723721,3290.1321072187275,15.350419368129224,31.65638317493722,0,1,1760921582.354941
-52.06127733318135,3056.852107582614,-31.98923427099362,-33.24958055606112,0,1,1760921582.354941
32.654936463106424,3027.1012034351006,27.2171219275333,30.41473638964817,0,1,1760921582.354941
45.80442470731214,3252.5722919637337,31.55540587613359,40.02627927577123,0,1,1760921582.354941
-31.398330077994615,3165.92628979031,-20.223509010393173,-15.260661769192666,0,1,1760921582.354941
-14.097552882973105,2952.381742220372,-6.277422075625509,-4.3251942987553775,0,1,1760921582.354941
59.189526648726314,3321.435069847852,40.54238546965644,52.50258552795276,0,1,1760921582.354941
-1.3968526334501803,3281.6163550196216,3.7642093054018915,9.572273936588317,0,1,1760921582.354941
-41.52223925804719,2911.459756905213,-23.241608274634928,-28.492427812423557,0,1,1760921582.354941
52.5250249276869,3092.8897835556418,39.73082717927173,46.41776830004528,0,1,1760921582.354941
24.868464755360037,3265.0111992163584,19.08283952390775,33.399176554288715,0,1,1760921582.354941
-53.149588220287114,3164.0488600125536,-29.16186990449205,-38.676175391767174,0,1,1760921582.354941
31.473128077108413,3031.835916779004,26.861831431742758,29.97716809483245,0,1,1760921582.354941
41.60451705707237,3169.651230146177,30.590511687565595,47.17696799105033,0,1,1760921582.354941
-29.726594797801226,3104.0945238228887,-23.260307774413377,-13.985355884302408,0,1,1760921582.354941
-15.256921869236976,2949.958287049085,-6.62897267146036,-3.5921739074401557,0,1,1760921582.354941
57.33453627070412,3339.648382632062,42.07948435144499,56.365902182180434,0,1,1760921582.354941
-0.8695267396979034,3258.7880056900904,1.969057326670736,4.067141201812774,0,1,1760921582.354941
-43.433328135404736,2845.1550705907866,-25.369611349422485,-29.775213497225195,0,1,1760921582.354941
55.094336197245866,3104.165581922047,41.888749453704804,48.92350127035752,0,1,1760921582.354941
25.90815694304183,3290.7716301111504,23.256567874457687,25.698722545523196,0,1,1760921582.354941
-50.673774449620396,3074.508175273426,-31.742400873918086,-31.15149668091908,0,1,1760921582.354941
31.18889568047598,3068.5280752442777,24.37853786116466,32.91672946000472,0,1,1760921582.354941
46.80671789543703,3281.8594485167414,29.21048860391602,38.94544818857685,0,1,1760921582.354941
-28.72056170972064,3086.311299533583,-23.709095769096166,-20.029034212697297,0,1,1760921582.354941
-11.715236611198634,2878.9488065904006,-8.480223149526864,-0.5441554435528815,0,1,1760921582.354941
58.26203145971522,3307.7507759099826,36.574351616669446,55.079376597423106,0,1,1760921582.354941
-4.21673720004037,3246.068605940789,-1.3332743342034519,5.469603685196489,0,1,1760921582.354941
-41.18938816199079,2874.8984949383885,-22.78908037999645,-30.238961091730744,0,1,1760921582.354941
52.43900722870603,3052.6260206326842,38.78463249048218,49.70514036109671,0,1,1760921582.354941
26.72345513338223,3288.0302834436297,17.93843013746664,29.375044201966375,0,1,1760921582.354941
-48.84122347133234,2999.018294667825,-33.025186558719724,-34.67822233913466,0,1,1760921582.354941
30.39977678982541,3089.535093295388,21.296860297676176,29.54707959992811,0,1,1760921582.354941
43.37722963606939,3350.8082440998405,29.97716809483245,44.1139899273403,0,1,1760921582.354941
-30.968241583090276,3154.373738827184,-18.31989993294701,-14.105032682884485,0,1,1760921582.354941
-14.340646380092949,2816.3167020324618,-4.22421699995175,-5.43220468563959,0,1,1760921582.354941
58.95765285147354,3211.8859203457832,43.39218923589215,53.523578215856105,0,1,1760921582.354941
-4.063401301857084,3268.104096479714,0.7199307414703071,6.64767217123881,0,1,1760921582.354941
-38.57145819300786,2975.116594051011,-25.691242745611817,-30.126764093060046,0,1,1760921582.354941
53.979846010450274,3293.45313837938,41.73915345547721,51.17118114372715,0,1,1760921582.354941
29.879930695984513,3126.1561936615035,17.291427445132285,24.539353559259325,0,1,1760921582.354941
-50.767271948512644,2967.012230847031,-34.13593684555963,-36.271419720258564,0,1,1760921582.354941
31.802239273209125,2970.542696405202,22.818999579641968,34.554805640596896,0,1,1760921582.354941
43.908295429777354,3245.717055344954,38.31340509606525,43.39592913584784,0,1,1760921582.354941
-29.427402801346034,3133.1124075790867,-24.838545555714518,-19.277314321603626,0,1,1760921582.354941
-11.973289708141237,3092.512053660117,-5.869772980455309,-1.123839936684817,0,1,1760921582.354941
56.66135427867994,3193.100402868353,45.23222001409158,57.22607917198911,0,1,1760921582.354941
-2.2682493231259286,3090.9001567792147,-1.9765371265821159,5.690257782582194,0,1,1760921582.354941
-38.47048089420423,2889.921673060395,-22.76290108030662,-26.633697534445673,0,1,1760921582.354941
55.24393219547346,3103.320364532061,40.95751436473802,52.970073022414,0,1,1760921582.354941
22.4001307846047,3269.9029883584008,24.38975756103173,27.793066520709544,0,1,1760921582.354941
-51.32077714195475,3031.2898913854733,-26.091412040870637,-35.21676793275401,0,1,1760921582.354941
28.82527890847996,3017.2727463515475,22.934936478268355,30.885963784065098,0,1,1760921582.354941
43.56796453380957,3451.5387095063925,34.42764904210344,42.13932275073603,0,1,1760921582.354941
-30.059445893857628,3234.564673677087,-20.874251602683216,-22.3627317850478,0,1,1760921582.354941
-12.463216602336615,3723.898793729488,-10.380092327017337,-0.2786225466988981,0,1,1760921582.354941
55.01953819813207,4099.433367980178,41.484840258490294,51.99769903393462,0,1,1760921582.354941
-1.9840169264934957,4167.559385573026,-1.1163601367734373,3.7567295054905117,0,1,1760921582.354941
-42.52827234612778,3983.201017257292,-28.593405111227185,-27.97258171858266,0,1,1760921582.354941
51.477852940093726,4150.367065476719,39.050165387336165,46.7805385957472,0,1,1760921582.354941
25.833358943928033,4159.570959267672,21.394097696524113,30.02578679425642,0,1,1760921582.354941
-50.733612848911434,3997.816546284128,-35.28408613195643,-33.070065358188,0,1,1760921582.354941
30.908403183799237,3974.1728987642564,23.11445167614147,28.642023810651153,0,1,1760921582.354941
46.92639469401911,4287.367080653552,30.100584793370217,41.73541355552152,0,1,1760921582.354941
-29.879930695984513,4140.213237097021,-25.264894150663167,-18.454536331351846,0,1,1760921582.354941
-9.329180439468473,3883.7907365350984,-1.8456406281329691,-3.584694107528776,0,1,1760921582.354941
55.180353896226734,4185.043417865876,39.29325888445601,53.26926501886919,0,1,1760921582.354941
-3.0798076135106385,4193.151520969812,3.4837168087251484,1.6661254302598536,0,1,1760921582.354941
-41.223047261592,3953.9699592036195,-26.70849553355947,-24.75626775668934,0,1,1760921582.354941
56.49305878067389,4055.9682506951503,34.33415154321119,50.08661015657708,0,1,1760921582.354941
23.656737169716507,4221.03247513948,13.828280086163431,27.011427429970354,0,1,1760921582.354941
-54.2304193074815,3926.7023486266844,-37.834697901736945,-33.48893415322527,0,1,1760921582.354941
34.41642934223637,4003.519893716555,21.453936095815152,37.468187706079334,0,1,1760921582.354941
42.83494414249435,4266.057130706031,34.08731814613566,44.58895722171292,0,1,1760921582.354941
-27.60233162296936,4053.256823227275,-19.94675641367212,-17.609318941365927,0,1,1760921582.354941
-7.3470334629528224,953.9774205973372,-1.6324663306586444,5.793105031363666,0,1,1760921582.354941
57.85812226450071,1275.3919025892392,44.52537892246619,56.40143123175949,0,1,1760921582.354941
-5.536921884398907,1214.6484475089237,-0.06544824922457337,2.9283416653051972,0,1,1760921582.354941
-44.56277792202309,1068.3286016425118,-24.823585955891758,-27.581762173213065,0,1,1760921582.354941
55.191573596093804,1110.8587439386174,41.492320058401674,49.665871411561966,0,1,1760921582.354941
24.240161562804133,1253.3676317501813,17.740215439815074,28.23998456541449,0,1,1760921582.354941
-51.03654474532232,1060.2765970379114,-34.9250557362102,-36.89411306288093,0,1,1760921582.354941
35.57205842854455,992.887339736335,24.853505155537277,32.67924581281841,0,1,1760921582.354941
42.38241624785587,1313.8829529331997,30.669049586635083,42.014036102220416,0,1,1760921582.354941
-32.75965366186574,1133.4813987705857,-16.150757958646864,-18.11233548540622,0,1,1760921582.354941
-10.828880321700126,926.1376053271815,-3.9624240030534565,-1.002293188124895,0,1,1760921582.354941
56.328503182623535,1294.4055539639667,38.75097339088097,53.353412767872214,0,1,1760921582.354941
-2.7918353169225156,1234.3053616760299,-1.0378222377039492,2.449634470976889,0,1,1760921582.354941
-36.50329351751134,902.8829074027017,-28.477468212600797,-25.188226201571524,0,1,1760921582.354941
57.207379672210664,1116.0235457774252,39.080084586981684,49.07870711851865,0,1,1760921582.354941
28.00624081818387,1325.4504634961486,21.424016896169633,24.425286610610783,0,1,1760921582.354941
-50.21002685511485,996.4365047942847,-34.53610614081845,-34.358460892923176,0,1,1760921582.354941
33.7021084506996,1009.4176975404844,25.58278564689681,35.615067278034985,0,1,1760921582.354941
41.92988835321739,1333.1434377050027,35.17936893319711,37.96372445020825,0,1,1760921582.354941
-29.315205802675337,1199.086723793298,-20.100092311855406,-22.267364336177707,0,1,1760921582.354941
-7.257275864016265,924.0657007517293,-0.6488726423121989,-0.35155059583485126,0,1,1760921582.354941
59.83278944110498,1315.2966351164505,42.41233544750139,54.05651395954192,0,1,1760921582.354941
-2.058814925607294,1262.9978741360828,1.4417314329184592,2.81240476667881,0,1,1760921582.354941
-38.261046496685594,973.6044155647978,-24.483255059923977,-24.51504420954734,0,1,1760921582.354941
53.70309341372922,1373.2501248298213,40.95751436473802,52.089326582849026,0,1,1760921582.354941
29.726594797801226,1108.439028667286,21.248241598252207,22.802170029841363,0,1,1760921582.354941
-48.61682947399095,1028.1545963184908,-30.650350086856633,-32.60070791374892,0,1,1760921582.354941
27.722008421551436,952.3842232162133,25.298553250264376,31.912566321901977,0,1,1760921582.354941
45.68100800877437,1283.088616698049,30.141723692882806,45.716537058353424,0,1,1760921582.354941
-32.13135046930984,1196.6483090221882,-18.088026135694236,-22.1215082379058,0,1,1760921582.354941
-6.311081175226718,1042.2577590513974,-0.8994459393434227,-2.539392069913447,0,1,1760921582.354941
57.85064246458933,1284.7229529786855,42.12062325095758,49.744409310631454,0,1,1760921582.354941
-0.4880569442175329,1127.0936496462673,-3.02370911417529,2.4010157715529203,0,1,1760921582.354941
-40.31051167240366,895.2235922934487,-24.943262754473835,-29.39935355167836,0,1,1760921582.354941
54.11074250889942,1202.3740958543494,42.10192375117913,53.00934197194874,0,1,1760921582.354941
22.68062328128144,1335.5220140768215,16.113358959089965,23.27339742425829,0,1,1760921582.354941
-52.86535582365468,1080.7188901957124,-33.361777554731816,-35.199938382953405,0,1,1760921582.354941
30.538153088185936,977.8379823146388,24.33739896165207,30.805555935017765,0,1,1760921582.354941
45.875482806470245,1310.8835531687364,30.994420882780105,39.669118830002844,0,1,1760921582.354941
-32.65867636306211,1214.3342959126458,-20.75083490414545,-19.66813386697322,0,1,1760921582.354941
-10.559607524890453,1047.77411148604,-3.82404770469293,2.655328968539834,0,1,1760921582.354941
58.48642545705661,1411.8047534730285,45.2247402141802,53.09535967092961,0,1,1760921582.354941
-1.8718199278227985,1140.3815141888335,-3.255582911428064,-0.3739899955689907,0,1,1760921582.354941
-38.95666788844392,828.7132114814594,-24.864724855404347,-26.235398189164698,0,1,1760921582.354941
