ch1,ch2,ch3,ch4,label,trial,timestamp
0.14296515741503046,0.18121322182048463,-0.028853902595262777,-0.2531338471674174,0,0,1762279114.6315231
-41.54851919512966,0.314935991728854,-4.409581747922947,-2.679527947959146,0,0,1762279114.6315231
-180.73529240471547,1.4498299423279266,-0.04422780030922726,-1.0294586452442414,0,0,1762279114.6315231
4.554803451993053,-2.266468539324569,-0.5651094186444703,3.5816715671172332,0,0,1762279114.6315231
45.979194203584704,2.318153139387307,3.3202745593629586,4.435524597836684,0,0,1762279114.6315231
175.64299788575264,-1.5312281731367505,-1.044046288414205,-5.4259762570614285,0,0,1762279114.6315231
-157.3604426145833,-2.0938362917614297,-1.3220497265514681,-0.7261716151925943,0,0,1762279114.6315231
71.11629014083424,1.0705900813646052,1.8820664877829876,0.04730567116164754,0,0,1762279114.6315231
-24.618499681585625,1.8224856200367843,-0.15544386815461636,2.0828531672788335,0,0,1762279114.6315231
66.4609582542233,0.8138654057380719,-2.7953132727865397,-3.2887057291941093,0,0,1762279114.6315231
-110.90487837409336,0.6411336836951071,1.8090912115372546,2.4304796893883194,0,0,1762279114.6315231
39.02758016075999,-2.6200828480599183,0.4641168664876343,-0.4747404683330597,0,0,1762279114.6315231
-62.52716430537151,-0.7087113736249734,1.8786992607492627,0.67128851695105,0,0,1762279114.6315231
155.60725034660638,0.2515454479826364,-0.8899611999797478,0.7235447228055885,0,0,1762279114.6315231
-109.5383113642052,0.40352731988686097,-1.7595237515572377,-3.4347977211198284,0,0,1762279114.6315231
-48.06872767243537,-0.06793896648357262,-0.8264586080765575,3.059667445303402,0,0,1762279114.6315231
147.56695998145713,4.0842644638057894,0.06745422931600477,1.581785042984087,0,0,1762279114.6315231
-98.11163845073095,-6.066646208787251,-0.9404456721827933,-3.6386172349914627,0,0,1762279114.6315231
-21.31611934437301,2.8484229256094964,2.6715626943598365,1.682366481421871,0,0,1762279114.6315231
11.447025924924848,-0.45766566787508817,1.3640222593002047,-3.5994330547213083,0,0,1762279114.6315231
143.5646692343696,1.144140930410973,2.3234083955141864,1.8364291546040137,0,0,1762279114.6315231
-98.80054089070967,-2.0349002170459833,-2.9412784406242203,3.4280652126058224,0,0,1762279114.6315231
-94.02022513740509,2.6490902527428917,-3.6893519296614743,0.434554243871939,0,0,1762279114.6315231
11.77830853348658,0.4895132488551992,-1.3765846904521086,-1.452177506302516,0,0,1762279114.6315231
118.70909400149228,-3.5242539203743175,2.627217442260519,-1.7199408968841932,0,0,1762279114.6315231
29.08949882419973,0.19749110805780193,2.3144401750496533,-1.9089462536685695,0,0,1762279114.6315231
-119.27730444096574,-0.6825833313607944,1.1624833065986242,1.8520998060018583,0,0,1762279114.6315231
-42.57597709958642,1.9314297359551942,-1.3160152619860928,1.0825097693985406,0,0,1762279114.6315231
69.3615878365511,0.7237421378230707,0.9540721063900288,-0.33606578169735296,0,0,1762279114.6315231
112.63909224902503,0.7999363903170215,-3.3916057205346504,-0.01562962060898848,0,0,1762279114.6315231
-104.72508383996406,-1.242308558307709,-0.20198327728246304,-0.3060017713451871,0,0,1762279114.6315231
-107.2385483574209,0.6843849142673795,-0.07494356290852801,2.0173030858503864,0,0,1762279114.6315231
178.1891040765674,-1.551281527944113,2.126562630405322,-2.1289352248422357,0,0,1762279114.6315231
13.934037998067547,-0.10426483544795627,2.8136625535372644,0.05518358261204192,0,0,1762279114.6315231
-100.62974223905363,1.0803903909016463,-2.228206368154425,1.580162518516099,0,0,1762279114.6315231
-58.93379606740101,-1.3504880622500262,-3.9700864621500274,-4.193452757082789,0,0,1762279114.6315231
40.119704607418285,0.49806808463875957,3.743141347683031,2.103502454396668,0,0,1762279114.6315231
71.08346724670808,-0.21102413521401311,-0.9720220260788455,3.8584191584600154,0,0,1762279114.6315231
-18.6745566647431,2.937868840334908,2.698559741213995,-1.9919583489459116,0,0,1762279114.6315231
-28.845944008188805,-1.1507395916723677,-4.083877128341252,-1.8522061670855146,0,0,1762279114.6315231
6.30173181352852,-1.537462713230087,1.2375654877056042,-0.43882286255444963,0,0,1762279114.6315231
94.65890648304088,-0.4981203506963356,-0.8296650384490656,-2.0632043968108977,0,0,1762279114.6315231
-104.19446549972514,0.23160212135420374,3.6193100272892518,3.8413705213793867,0,0,1762279114.6315231
-27.724002441259103,0.7689392815104609,-3.612525949028209,3.049424052007892,0,0,1762279114.6315231
-0.041288636628269496,-0.10066019157759627,1.782060503519984,-3.002418170974143,0,0,1762279114.6315231
106.4175776312954,-0.7130278242784984,-0.2942038118126002,0.051497361574347734,0,0,1762279114.6315231
-73.13309471916573,1.4605423389302288,0.6721796069424302,-1.4522511776029103,0,0,1762279114.6315231
-22.07030743977208,-0.11658782694470941,-1.480083704933202,-1.2703170562607513,0,0,1762279114.6315231
36.03559122040691,1.4016241422164903,-0.8267032965385024,2.6737192147971385,0,0,1762279114.6315231
6.498022064873304,-1.9802830880255953,1.3969929708083275,-0.43652204769024,0,0,1762279114.6315231
22.308158558311625,-1.9988184512487754,1.038906327148443,-0.5162297684320721,0,0,1762279114.6315231
-9.079466067191033,1.7517435091439377,-0.502753469945231,-0.6859288505645649,0,0,1762279114.6315231
-18.857541415521734,0.18290449982184015,-0.02063773045374388,1.1690434313211102,0,0,1762279114.6315231
-36.5046449872447,0.5866577549579819,-3.2973605800464947,0.3642287647339867,0,0,1762279114.6315231
-4.72790010593113,-1.6856401169568045,3.7190921673148787,1.2707912470965745,0,0,1762279114.6315231
14.697469819018975,-0.4817817168204312,-1.4664437093335856,-0.5970074912248029,0,0,1762279114.6315231
47.84716711140571,2.7427745213258223,2.1078486187525964,-1.4422358939772446,0,0,1762279114.6315231
-9.311566703323281,0.7354476726290053,0.022555679021718643,-1.6460010425071783,0,0,1762279114.6315231
45.342364391772364,0.5276221071732307,-1.6853748209247597,1.8890322874683667,0,0,1762279114.6315231
-78.23385775258653,-3.0692392058215083,-0.5547874228265932,-1.2525784589156823,0,0,1762279114.6315231
-14.419374129615736,1.3336731124148407,-1.1933983514661357,0.2815984837733804,0,0,1762279114.6315231
24.555585924460583,-3.8877055088311567,1.1755320575476795,2.0286002012816455,0,0,1762279114.6315231
-1.4250523805962678,0.7621656419803997,0.07134559300754882,0.5798604111453104,0,0,1762279114.6315231
31.944904935490165,5.3353756074175465,3.6679098392367844,2.200352627504378,0,0,1762279114.6315231
-57.357227958068385,-3.636434969012942,-5.179622515438489,-7.266113537536689,0,0,1762279114.6315231
53.824913977899406,2.203372439746353,1.9671922397880568,2.4257842916196344,0,0,1762279114.6315231
2.639149775278949,-2.2198176412514132,2.924863679636515,0.4055684170429756,0,0,1762279114.6315231
-51.131582009049914,2.3316026890295722,-3.26675668388362,1.554636494087061,0,0,1762279114.6315231
64.65785114739636,-0.4103240737853357,0.34486976369494393,-1.5551848923304799,0,0,1762279114.6315231
-64.5719798059062,-2.567543733251,-1.8481194192559263,-0.6003123395967394,0,0,1762279114.6315231
34.04627146538239,-0.7445061669736368,3.1858234545092543,3.1263266530449068,0,0,1762279114.6315231
-7.010156560233256,2.9851573046996864,-1.4585455530813234,0.18877251273887055,0,0,1762279114.6315231
-0.32471078385875424,0.26507085683532916,0.992456271473206,-1.5373815524586059,0,0,1762279114.6315231
-4.347913399797813,-0.1835648529163265,-1.8029003736013136,-2.697291606076393,0,0,1762279114.6315231
24.01034872583732,-1.3691036256972877,0.9324220456686803,0.6561083867785488,0,0,1762279114.6315231
-31.14125283251145,-2.7558106596769663,1.357436785191412,1.3495079190922816,0,0,1762279114.6315231
-3.036960062344344,4.832249423167399,-1.5288391657451366,-0.09986773036477897,0,0,1762279114.6315231
53.99268189237394,-0.2658498245897014,-0.47437337728249235,1.4710030122818718,0,0,1762279114.6315231
-38.573748676355855,0.2293775258033169,0.05494060315391522,-0.5201518432308491,0,0,1762279114.6315231
-22.072666607175513,-2.003848836290509,0.9288609580729562,0.2603349973594028,0,0,1762279114.6315231
45.227151865791996,-1.3486151848346293,1.597461929900674,-0.393221541349193,0,0,1762279114.6315231
-35.88067665927387,2.3367274183867695,-1.6069765519601245,-2.6318629990949463,0,0,1762279114.6315231
-0.4747245993505495,0.7442675002663256,-0.7972991348325715,-0.38348195943736735,0,0,1762279114.6315231
-4.775946778084006,-1.9638464336505985,-0.9261199190907592,2.5292131045778516,0,0,1762279114.6315231
65.01540117352404,-0.24993496150165148,3.5204251205054615,1.7782803323338712,0,0,1762279114.6315231
-64.87929928829942,1.0921305985512137,0.24127845372095544,0.46345894922146713,0,0,1762279114.6315231
12.413075951257943,-1.464856178590201,-4.71281645547093,-0.856928135922001,0,0,1762279114.6315231
51.01729077205674,0.6499159432853717,0.2768396318467486,-4.0617872490084315,0,0,1762279114.6315231
-54.332080220450706,2.6978412355978736,0.5975341371089983,1.24160884800499,0,0,1762279114.6315231
-3.7173805344178334,-1.4712261976636198,2.6673234441733134,0.597356343278848,0,0,1762279114.6315231
-18.25522445352929,1.2149054018241257,2.1246109690727266,0.26359248635203036,0,0,1762279114.6315231
17.723683628534424,-0.5935330411077956,-1.6728703188832017,2.321862992491554,0,0,1762279114.6315231
38.79228552465279,-2.2677774707533405,-1.6929554472973452,-0.5394801601210935,0,0,1762279114.6315231
-9.757052766455912,-1.4678799302153556,-2.4624352101652196,-1.2698400223932702,0,0,1762279114.6315231
-13.15665614935705,0.08692002573785544,2.1185997239665935,-0.8196997695171321,0,0,1762279114.6315231
32.19966646757924,1.9893358299182269,-0.5917373878336617,-0.8036699830490913,0,0,1762279114.6315231
-55.90018083835135,2.8764403507035547,3.663713431207621,1.0731442311999297,0,0,1762279114.6315231
-5.972127674602275,-0.7677878141500345,-1.1143227743751116,2.3110479302730993,0,0,1762279114.6315231
-1.8958896637786407,-0.7617511815567599,-3.684248102314401,0.11488720759714491,0,0,1762279114.6315231
24.495832503355064,-0.11516119958585272,2.3939311355634354,-3.7050852989443013,0,0,1762279114.6315231
48.4741485136386,-0.7859086270218543,-0.7557400858689762,0.7493545798922773,0,0,1762279114.6315231
-29.146916386343836,-1.2198875858584284,0.9123386411107022,1.0289905326740396,0,0,1762279114.6315231
23.000781217203066,-0.7953606327481766,0.8278619109891294,0.6236854140560057,0,0,1762279114.6315231
-63.248016615333796,0.3234261533455185,-3.132892589574943,-0.10728879771684006,0,0,1762279114.6315231
4.7778190679192685,3.1847202133411683,3.6976275752917127,1.0226996464912845,0,0,1762279114.6315231
16.159879601469157,-1.3797393341358264,-1.0664358110092214,-2.7480112948594404,0,0,1762279114.6315231
-15.062399537934082,2.229593578577542,-0.5460078526124672,1.1456257652458481,0,0,1762279114.6315231
23.77837237924462,-0.8843078042374298,-0.5194094749457734,-1.7096318723147481,0,0,1762279114.6315231
-17.251006759071586,-1.9623237360194403,-0.45636082851900334,0.533508151732859,0,0,1762279114.6315231
-7.188854857791818,-0.3362919614612897,0.9046047054321463,3.3086410512952753,0,0,1762279114.6315231
110.93298352815745,0.22360901516753665,0.0043681346050673635,-0.47492242866355816,0,0,1762279114.6315231
-57.46747854291688,-0.18746178032239666,0.7526799999111906,-2.300032235073814,0,0,1762279114.6315231
-55.2739087320918,0.5548989481047633,-1.1978681114765135,1.6005872507301557,0,0,1762279114.6315231
-29.908451599976047,-0.5142757581448868,-0.5889016409150735,0.4542032345874824,0,0,1762279114.6315231
-0.3912281541062254,0.5797743185668601,0.8706263724037638,-3.277977351613807,0,0,1762279114.6315231
63.036553260134994,1.2276729329889182,0.5834865047654727,1.1238274308552527,0,0,1762279114.6315231
28.119322905844744,1.2050430175412417,2.4335976858200157,-1.248201993335179,0,0,1762279114.6315231
16.35166238769449,-1.8370187586059934,-2.7165778986718494,2.746759645523673,0,0,1762279114.6315231
-72.02393051423634,0.19400083821556632,-1.103379708773122,0.4326381316370372,0,0,1762279114.6315231
13.797079430973625,-1.637234557167465,-1.354049910529142,0.5876098615496467,0,0,1762279114.6315231
-32.567860056347946,0.5737214084869411,1.170893794184524,-1.9834130788449262,0,0,1762279114.6315231
29.867617559759047,-0.7968853862550519,1.0950727677484693,0.15361177321032504,0,0,1762279114.6315231
22.878025748657013,1.4609416005228144,2.352384703429625,-0.21303046649750096,0,0,1762279114.6315231
-13.208451186995319,-2.290634162853764,-1.8345728844927705,-0.7272004176915949,0,0,1762279114.6315231
-34.89456248881726,2.277953197471547,1.2392680759629338,2.801356757061739,0,0,1762279114.6315231
37.41430167410979,1.0797869025220692,-0.718346637187853,-1.9675345257103518,0,0,1762279114.6315231
69.95016658389004,2.2405261495352478,-4.084144921886535,-0.701903612227539,0,0,1762279114.6315231
-87.50600671671386,-2.6224281822965434,0.5153160692608045,-0.09258983795140636,0,0,1762279114.6315231
-33.819567762899545,-2.0853890966996858,2.6439248495056717,3.2637878728142518,0,0,1762279114.6315231
41.98498501693174,0.024701328294962636,1.1798790919852942,-3.667939282859394,0,0,1762279114.6315231
4.9555305944871835,-1.0141496523852662,0.2830319945324432,0.6346860770796686,0,0,1762279114.6315231
-10.598146232626625,2.320302850720853,-0.9875438137991627,0.9026204395020886,0,0,1762279114.6315231
23.386689973875516,0.1934273446209857,-0.6996049328238326,2.2676341115021184,0,0,1762279114.6315231
25.526497672678502,1.5464168696856986,2.170592351581817,-1.2608641206702973,0,0,1762279114.6315231
-63.18361133874722,-1.445009383985366,-3.5572973920659403,-1.1227984914512221,0,0,1762279114.6315231
14.735726052396657,-1.4109494974233825,-1.813018481504028,-2.459916838075009,0,0,1762279114.6315231
-24.50975528313656,0.410683942605586,2.411123255758552,1.7291566245148848,0,0,1762279114.6315231
12.227079749163329,0.41156625872006825,3.0049879447765697,0.6788770537966039,0,0,1762279114.6315231
81.56775168072399,0.8755027967782024,0.12653700491593534,-0.8408840449012126,0,0,1762279114.6315231
-44.172033893171275,1.1029157171944124,-1.60324194825048,1.0564582268995018,0,0,1762279114.6315231
-3.319497922573734,-1.2342736959033576,-2.0394320276184237,2.0570958598013642,0,0,1762279114.6315231
-31.691511968338684,-3.0411771801618444,0.5593559799174016,0.04929971068435122,0,0,1762279114.6315231
8.780430675624931,1.9074459543629665,0.8440220256261155,-1.7500925630013808,0,0,1762279114.6315231
-11.685233818408351,0.41984111803671986,0.753977474373763,-2.704359854963657,0,0,1762279114.6315231
16.796875459595988,0.46230913418523434,-0.22561155021275706,1.4767811851450936,0,0,1762279114.6315231
1.612666717619513,-0.9178836442802155,0.10801195650111997,-1.8197362813093716,0,0,1762279114.6315231
-26.974390886053687,1.7468434739072516,-1.1782985999040843,3.4664361357819793,0,0,1762279114.6315231
78.82024498946143,0.6149897125300238,-0.19236839375937484,0.18669522305656427,0,0,1762279114.6315231
-28.46289550325538,-0.9273932933468741,0.5076640744942124,-0.32048580977844965,0,0,1762279114.6315231
-0.7160975633398928,-1.0621496479017234,0.5664063669818941,-1.8068337548655964,0,0,1762279114.6315231
-36.94862197968271,-1.6131084668945863,-1.010828023392296,2.798627743996383,0,0,1762279114.6315231
10.797887121969662,-0.5085201987072865,0.15224398910006945,-2.832517593731652,0,0,1762279114.6315231
-0.6598593025392784,3.3731267780713146,2.012779538415756,2.001721357680874,0,0,1762279114.6315231
-17.42230577174676,0.5789145482539226,-0.43979821717162465,-0.35774403136729555,0,0,1762279114.6315231
29.353893091032088,-2.3508827970192137,1.5495641408640288,-1.690544175199103,0,0,1762279114.6315231
-12.71601168675634,0.8799423329481358,-5.6838424213065135,1.6338147927309217,0,0,1762279114.6315231
11.838774183521284,-0.7102597396068357,1.5559064657427168,-3.5278332374881676,0,0,1762279114.6315231
10.264372762079553,1.1938807323334664,1.3725276706915168,1.6620104186359914,0,0,1762279114.6315231
-1.4279210506738074,-0.48527160061618013,1.094025508877138,1.1411214841498818,0,0,1762279114.6315231
-17.570247778216217,5.0768059031307775,2.099204300590052,5.191787266834681,0,0,1762279114.6315231
36.04778183265142,-8.987461886082192,-5.32340880417418,-2.762654600311121,0,0,1762279114.6315231
-61.13012801700876,2.338464087584325,2.055329579231122,-3.02265054725907,0,0,1762279114.6315231
11.256899606777315,-0.38328679469952226,-0.3136920547864768,-0.8031234322889861,0,0,1762279114.6315231
44.3853428149479,1.316048395432046,0.5846947946034456,0.5026275382586249,0,0,1762279114.6315231
-15.908849147263345,3.7476643287749734,1.7718698094745058,-0.17474324149094267,0,0,1762279114.6315231
-40.50927224020379,-3.507052644992487,-3.3412133107591795,-0.41780773617452494,0,0,1762279114.6315231
8.533087391527454,-0.22837491616467312,2.02413634576462,1.9629551669396228,0,0,1762279114.6315231
-0.42274860160326244,2.0551971091110386,-0.4913983788037736,1.1278993804709943,0,0,1762279114.6315231
79.36196814103181,-2.108826941785308,1.1286352973588838,1.2670423742942647,0,0,1762279114.6315231
-6.248987213557833,-0.06507680180568419,-0.6960555231556147,-2.2015090029501647,0,0,1762279114.6315231
-58.75227470234439,0.669931767070683,0.0064995872461715105,-0.8786590533910672,0,0,1762279114.6315231
-34.05936628575212,0.3048969815754824,-2.3157541015431558,-1.2150346814834578,0,0,1762279114.6315231
16.38108683041676,-0.31036060165500395,2.1050244754900307,0.5893443209394305,0,0,1762279114.6315231
15.27969589205202,-2.1659886369299755,-1.1899047730758865,2.9850722411024644,0,0,1762279114.6315231
36.39011743536305,3.766492129119656,0.3160277693189917,-3.0351797764843536,0,0,1762279114.6315231
4.329146092161532,-0.6447137527621496,0.813569492434328,-0.7090787968399878,0,0,1762279114.6315231
-36.8386686296321,-1.2351301241529968,2.824313535650557,1.4846888834469494,0,0,1762279114.6315231
17.643579432328348,0.060967384859213034,-2.9367355924264515,1.6270217922296626,0,0,1762279114.6315231
-18.652204098336142,-0.8683989156836727,0.21644326524074564,0.6298905413727728,0,0,1762279114.6315231
-42.49217021636404,0.8263056866683488,-1.028869609956285,-0.6375483635134459,0,0,1762279114.6315231
51.04882866854255,0.9211609944813086,0.3386793331019504,-1.8486710364529755,0,0,1762279114.6315231
5.680654307029116,-0.850136376160448,-0.6426257141017861,-0.0975695792506244,0,0,1762279114.6315231
51.641892649839285,0.9645573949117658,-0.3806804273798335,-0.3262636566105187,0,0,1762279114.6315231
-63.217450544059176,-0.7110760222039849,3.15557541331623,-0.46700603127862567,0,0,1762279114.6315231
3.861939814160902,0.4200689441327039,1.7596626039958583,0.9983230411285081,0,0,1762279114.6315231
-4.953296592791812,-0.5384628958428379,-3.6011686508929945,0.1366115327395764,0,0,1762279114.6315231
-34.17514890331318,-1.9462467592957857,-1.5647275026152072,-0.17921464214023222,0,0,1762279114.6315231
33.017081570870744,2.260849956306348,-0.9899458088531885,1.4628093350882796,0,0,1762279114.6315231
11.196575954921398,-0.04423083379046453,4.017027854516833,1.937350879824293,0,0,1762279114.6315231
34.307106130836544,0.47598537209418396,-2.4789692366486844,0.5238830498225826,0,0,1762279114.6315231
0.011975740016480314,-0.26102439771060115,1.7583008493393537,-5.357232846411214,0,0,1762279114.6315231
-75.7904682997495,-0.023679180626065704,0.8251761892233149,-0.4986149747355881,0,0,1762279114.6315231
4.399776116258212,-2.1207270648275873,0.5857125782885731,-0.5434481307561707,0,0,1762279114.6315231
1.7630544296874973,1.4255780308813848,-3.2772371188125655,2.8946385424373133,0,0,1762279114.6315231
69.71930275478637,0.06483738110819681,0.8373077133533651,-0.05027974532079904,0,0,1762279114.6315231
40.29822224919045,1.3578549619017053,-0.03674779124058301,0.8748891449467536,0,0,1762279114.6315231
-109.89604831782187,-2.263652013581625,1.0159545350942256,0.5176229557656182,0,0,1762279114.6315231
-5.608750239480663,2.245209892575865,-1.2908080116838982,0.3073135381879142,0,0,1762279114.6315231
18.962723877173335,-0.1169553080198398,1.0392453438320304,-0.8606763392166286,0,0,1762279114.6315231
43.03058765232387,-0.6323361301384255,0.3712972341533869,-1.542076118073462,0,0,1762279114.6315231
-26.668128131508762,-0.2920242931790073,-0.36758608195535974,0.8247650185580928,0,0,1762279114.6315231
-31.45458498443633,-2.1344208085086573,-0.10231586794681352,-1.1374805770351744,0,0,1762279114.6315231
26.60391149158013,-0.12822534932439517,-1.9344297431209216,0.9056113788503646,0,0,1762279114.6315231
85.33282211483854,3.532925957666882,1.3833881173766729,-1.814526755775819,0,0,1762279114.6315231
-82.72599337178038,-0.1465164503900824,0.4527317384744414,3.0681723855376624,0,0,1762279114.6315231
-16.00007559937643,-0.32799199000061763,0.21725520555718647,0.3461384631016564,0,0,1762279114.6315231
41.84690812504891,-1.604081322399398,1.1719719731447897,-0.9580364540136287,0,0,1762279114.6315231
-55.45845281807349,0.974237996315528,-1.5472674208565407,-0.9359240775468326,0,0,1762279114.6315231
-6.50903297923414,-0.9046110163633727,1.0849885421764078,0.19416589578061136,0,0,1762279114.6315231
25.290897696878304,0.4872133014718443,-2.3322668184665294,0.07334351233885732,0,0,1762279114.6315231
8.961327374923323,-0.29399779016801697,2.219864938063833,0.05488982264605689,0,0,1762279114.6315231
91.9583737344763,0.733592504429833,-1.5626428582854552,0.8554395400062009,0,0,1762279114.6315231
-46.21042562858031,0.5492950967921941,0.03322331816860718,-1.7308072111639918,0,0,1762279114.6315231
-70.84854626539489,-0.3903297581996331,1.8941914078017958,2.0621302458586825,0,0,1762279114.6315231
8.09452121874885,-0.35222713378677606,-3.945312403737928,1.1843095694143344,0,0,1762279114.6315231
-29.534592919329405,-0.9602526110948836,3.7043010096891247,-2.781633082267508,0,0,1762279114.6315231
58.40303582757893,-0.3349921356245402,-0.7187862792272932,-1.4154524489135762,0,0,1762279114.6315231
41.70561730429682,1.964149190178325,-1.1459117691659706,0.793342639615887,0,0,1762279114.6315231
-41.448971125107256,-0.13212767839252723,1.9930809568191528,1.9399256641530924,0,0,1762279114.6315231
-43.04078093732046,-1.3935426487509432,-0.031902028419738375,-0.1129077811651294,0,0,1762279114.6315231
7.6185194046894065,0.7618812150143944,-0.7242645167010069,-0.7922420287693822,0,0,1762279114.6315231
81.06087253287787,1.6084110367949442,0.9962808009365891,-0.6768287295337732,0,0,1762279114.6315231
-40.95132637849353,-2.154313823663513,-4.1106068572425425,1.1737808483290626,0,0,1762279114.6315231
8.549013105081606,-1.0646807120667816,3.229535906542693,0.7022111641602149,0,0,1762279114.6315231
-34.64260356295262,2.645669085259667,-1.6071069724923988,-0.4289881785086283,0,0,1762279114.6315231
-36.46557886124807,0.07056202872699022,-0.14658282691897517,1.8699045829087264,0,0,1762279114.6315231
66.59093397872616,-1.7915479572420143,0.5456506910293255,-3.7574319481717335,0,0,1762279114.6315231
-6.0268019514836,-1.0612554007326942,1.787891480374846,0.11839832257760909,0,0,1762279114.6315231
14.235329405793252,2.189189896864906,1.5769239600644973,-1.9845888581531792,0,0,1762279114.6315231
-62.453087607426916,0.7995212279614291,-0.9781277572211285,4.018368207423871,0,0,1762279114.6315231
48.32711757035707,-0.7107036426308423,-1.4035208031979725,-1.196882021158202,0,0,1762279114.6315231
17.25093072198625,-2.979820367184867,-1.4532475802952192,2.1877256160144123,0,0,1762279114.6315231
-4.259616578118557,4.382920862148331,-1.55480972662796,-1.3236900207900941,0,0,1762279114.6315231
-70.34687657310997,-0.5681988114258818,0.2618776036327438,0.8238569578010982,0,0,1762279114.6315231
24.955072329337288,-1.645869310177307,2.8710138076533998,-1.286461399609061,0,0,1762279114.6315231
79.31781363717232,-0.6706680728129056,1.3108188551113684,-1.5722752938300635,0,0,1762279114.6315231
-75.41927824940458,1.138257320307264,2.015262860112686,-0.033658976037984574,0,0,1762279114.6315231
23.074249338146757,-2.652164517024546,-3.2209517264271628,0.9402021691728497,0,0,1762279114.6315231
20.27128630211017,0.5418464656673182,-2.3768507812126254,1.088899310928691,0,0,1762279114.6315231
-52.65254986560417,4.098857295648144,0.6109601468136966,1.0576583864551747,0,0,1762279114.6315231
18.591775228984517,-0.3403861752711756,1.1842380496060096,0.27792218194637347,0,0,1762279114.6315231
-19.121121831904148,-0.7123916549967235,-0.931608728897375,-1.305114899732682,0,0,1762279114.6315231
54.2265434328297,0.02144765509591147,2.4719257284049867,-2.235695129775072,0,0,1762279114.6315231
25.30832304493607,-1.4081793861050655,-2.9785782505946785,-1.1254851879805654,0,0,1762279114.6315231
-64.69338986130488,-2.183404965000918,0.6978265303754958,3.8558535328659427,0,0,1762279114.6315231
1.8688319540242018,1.1707562976819168,3.1825957764454116,0.8087989597461791,0,0,1762279114.6315231
-12.619823969148129,1.6227213202006883,-0.9782191320884949,-2.9772913969744548,0,0,1762279114.6315231
16.937785734191642,-0.08468643461405541,-0.8863750909156451,0.10091714767179102,0,0,1762279114.6315231
14.583323184727714,1.211898728155469,-0.9528332789260702,1.2005085664872757,0,0,1762279114.6315231
60.40771432417413,-1.0038050622101387,0.34398057775480406,3.134101386147196,0,0,1762279114.6315231
-75.13661836784371,-1.6516095186797752,-2.1561172876052312,-3.7620306149728973,0,0,1762279114.6315231
-39.54820922040031,-0.5211324776158099,1.301881884600416,-0.29340266634077045,0,0,1762279114.6315231
18.209855563449313,3.173470587765205,-0.1309369373567691,0.40363119992378743,0,0,1762279114.6315231
52.59676114197779,-1.4369615119159196,2.761652295334717,-0.2625497462969954,0,0,1762279114.6315231
-21.392104162278493,2.3474032081164213,-1.5048265817757176,-0.3880461714944165,0,0,1762279114.6315231
5.097046751802405,-4.174172213163711,3.8064521963356546,1.2437824220178777,0,0,1762279114.6315231
50.295731346728694,-0.19471842124806815,-4.64247032962705,1.644106169455133,0,0,1762279114.6315231
-76.08947009011386,3.3367454597416075,0.26627733006114246,-2.986398987135854,0,0,1762279114.6315231
-13.2265960656096,-0.7703975877555975,-1.8612189287278011,1.6656037787262727,0,0,1762279114.6315231
13.169656654456576,1.0623587469883344,0.3565208004082585,0.6291793341522304,0,0,1762279114.6315231
26.72475504727546,-2.7990217389440444,3.7071671445182934,-0.9572847890219892,0,0,1762279114.6315231
-13.263100260083705,0.5798353416454093,-1.4118986276216137,-1.4250226569410613,0,0,1762279114.6315231
41.65017757063926,-1.437960527700811,-0.9409418234090562,0.2792758319589194,0,0,1762279114.6315231
-24.382204814267048,1.6055932382354607,0.7526580176299504,-0.4950754560157804,0,0,1762279114.6315231
-45.829072365504544,2.708139752890953,0.8601918807082863,2.364818908851623,0,0,1762279114.6315231
8.127555128767408,-2.4125446901383936,-0.45527082916245265,0.6455042439623488,0,0,1762279114.6315231
39.65352621044327,1.93584485590149,-0.6784783441482037,-0.934296288729499,0,0,1762279114.6315231
51.976998400151125,-0.3641031661771652,0.5382994695582061,-0.12850391544288559,0,0,1762279114.6315231
-56.00549939477641,-2.955115706165447,-1.4278423580597022,-1.8712036468335576,0,0,1762279114.6315231
-58.06529683304042,-3.4183923067614175,-0.9899718198341564,-0.34081599724767103,0,0,1762279114.6315231
-4.139777705297555,4.037672429877514,1.22482517046268,2.8809014136285302,0,0,1762279114.6315231
51.66727957137486,4.307369732651924,1.7658825277578185,0.10581062369623646,0,0,1762279114.6315231
39.33918595728634,-0.48753594607648976,-0.7193153501852066,-2.7600696587186757,0,0,1762279114.6315231
-7.267708860677085,-3.151654849842397,3.0524332703085806,2.0190740263250353,0,0,1762279114.6315231
-19.92716478890748,-0.0716271855087054,-2.765902876491703,-1.1052222588270155,0,0,1762279114.6315231
-1.2546427530063176,-1.7347521139170787,-3.7400472766083044,0.5834609355887872,0,0,1762279114.6315231
-41.91271937653204,0.8336911106630879,1.3125661379706657,0.609132583450858,0,0,1762279114.6315231
3.731956956014455,0.20276834920277387,0.7765521119409922,-1.6928589662555151,0,0,1762279114.6315231
-3.3568727685070807,3.3544291905285806,3.1696930389476363,2.24085712720483,0,0,1762279114.6315231
42.87091666432194,-1.5004277826306371,0.2466336921535638,1.051330450627217,0,0,1762279114.6315231
77.80146157768299,-0.9436120503026925,-1.453414376290258,-3.1396419240174067,0,0,1762279114.6315231
-130.22692598923433,-0.7781423697179836,-1.7542228663466966,-1.2325250916270545,0,0,1762279114.6315231
42.443181454389524,1.0297760362647264,-0.3767067796877209,0.15923054695580152,0,0,1762279114.6315231
0.776819674249317,1.0385157501189415,-2.024297132534099,1.8249380701690407,0,0,1762279114.6315231
18.894085848251773,-2.073422671711799,4.104915210674563,2.646856568304718,0,0,1762279114.6315231
-53.46531815261247,0.319891417872281,1.9037605836321334,-2.518099939081636,0,0,1762279114.6315231
-2.5957402074205493,-0.07531893534361137,-2.321438058819716,0.7263685077562451,0,0,1762279114.6315231
36.87064025859861,0.00399283746368816,0.300246205108852,0.08600546507884664,0,0,1762279114.6315231
62.63188822836463,0.44874761097139815,-3.1759718459048827,0.08538992873003101,0,0,1762279114.6315231
-92.64929152262293,2.400934813599089,1.4935677069685656,-0.508173622584288,0,0,1762279114.6315231
14.273147481138405,-2.8089142741441564,1.3235079160527983,-3.2513627701393584,0,0,1762279114.6315231
37.797386221056435,0.8578946951694434,-0.43792881401035516,0.8164798991162486,0,0,1762279114.6315231
9.48619681731249,-0.6153256971350831,2.346095280806057,1.2961042586372469,0,0,1762279114.6315231
-60.39018481566602,1.1212398769567369,-0.6730540948210024,1.4832876222124265,0,0,1762279114.6315231
-2.638458483343909,-0.6013023453051337,-4.925308992745544,2.0239312543863313,0,0,1762279114.6315231
18.47001902811035,-1.676410982858854,3.048207919802333,-1.661771598453785,0,0,1762279114.6315231
1.223559995371966,0.5333532666701469,0.23354444217987835,-2.645064912927837,0,0,1762279114.6315231
68.73812104065097,2.9082839337267976,1.5458026390479114,4.481235122798528,0,0,1762279114.6315231
-54.917698153071775,-4.453694199510027,-2.497514429873081,-4.116182777129949,0,0,1762279114.6315231
-28.128959247097324,3.421976916683684,1.4594341836087055,1.711523554202361,0,0,1762279114.6315231
8.517532214595915,0.8003293105482122,-1.524749731104795,-2.4582247085803206,0,0,1762279114.6315231
24.160385957180956,-2.4811154900827463,1.457699083957529,-0.4308911440866687,0,0,1762279114.6315231
9.387659947074669,0.946831782842165,1.002834230978465,1.2290860513512303,0,0,1762279114.6315231
-1.1052679423649925,-0.1803644579379005,-1.144012230018567,2.382323896946133,0,0,1762279114.6315231
-25.54661725257863,-0.5057844104402467,-0.08710533236151496,-0.24350125277727108,0,0,1762279114.6315231
-22.405195053224887,0.5766392790297533,-2.680721126211367,1.1319516736268467,0,0,1762279114.6315231
23.300917189148045,-0.5261844718049351,0.6748442852592265,-0.05317166428643094,0,0,1762279114.6315231
14.12071468906425,1.2034261950198266,2.294973324729128,-2.249339567763197,0,0,1762279114.6315231
-21.475996849494468,0.5273771786589638,3.014343824192117,-1.5933567770729886,0,0,1762279114.6315231
85.26530861024233,-1.4885423368420336,-1.9128630460263978,1.9039420049982916,0,0,1762279114.6315231
-77.44802444085755,-1.7633824984541155,-1.703378049400118,-2.122378624782442,0,0,1762279114.6315231
-25.028737012935846,1.1499789482846496,-2.179909004161062,-0.877525104019833,0,0,1762279114.6315231
23.053317357414105,0.07100873248214003,-0.05825195234494001,4.8520376780890375,0,0,1762279114.6315231
21.293177288377226,1.1541860844988021,2.3495542482510934,-0.46454683749641656,0,0,1762279114.6315231
10.739875085846997,1.6389317852614147,1.4644987018295326,0.9519215349695526,0,0,1762279114.6315231
-38.33937190610611,-0.8884638847641503,0.5580107791258893,-3.982193115580641,0,0,1762279114.6315231
-7.217532936456158,0.47533395516882965,-1.9252747771681697,-0.26263898600279373,0,0,1762279114.6315231
22.532595927483037,-3.5215750361648706,0.6227610538413533,2.7950682767414277,0,0,1762279114.6315231
44.87376857285272,0.30611794159204375,-2.8827690847657004,-1.2760708002689312,0,0,1762279114.6315231
-60.67900007772958,0.48696134975194516,-0.4926375593289009,2.2644878279523586,0,0,1762279114.6315231
-7.357872565699322,-0.049296087870873764,2.280688712130415,-2.9306666535451615,0,0,1762279114.6315231
13.657021384920377,3.688796207961941,3.876517055203593,1.7545075724596515,0,0,1762279114.6315231
45.06145530201787,-3.6284471334989203,-1.9635482879393877,-3.5013002658647148,0,0,1762279114.6315231
-43.85487859513077,3.168530342605424,-1.9001535167361867,1.7200202499904564,0,0,1762279114.6315231
39.45232619532844,-1.8804920491983608,-1.9243295471740227,1.5850299557121952,0,0,1762279114.6315231
-41.09361298155306,-1.170449666786599,3.6453206037251777,-0.27786119758771094,0,0,1762279114.6315231
-16.265315299815967,1.6323886965825107,1.410379845514552,1.383652987838938,0,0,1762279114.6315231
25.22586707020754,-0.8757879041460571,-5.068877511280868,0.4672856662582557,0,0,1762279114.6315231
9.89795134845417,-0.13220455305307352,-0.2545436129688585,-3.964695918749142,0,0,1762279114.6315231
-6.4493972782126505,-1.3809261850452497,-0.33622783474371687,0.14345173416038615,0,0,1762279114.6315231
0.3772985311370113,1.336646675742474,3.9627887271773425,2.2105221450748522,0,0,1762279114.6315231
-22.494566033532163,1.1050521560384268,3.4478812883331296,-1.4278380251302765,0,0,1762279114.6315231
-15.037548596694638,1.16348690689183,-1.770963702444077,2.0599079873776422,0,0,1762279114.6315231
109.51520970833373,-2.7551807428615733,-4.071008390420564,-3.1342161669116413,0,0,1762279114.6315231
-61.48302205541542,0.035271084084329905,-0.7716958781065637,1.0900263314007466,0,0,1762279114.6315231
-4.58137562865059,2.1410369907331854,-0.30892816754387664,2.6697087498175036,0,0,1762279114.6315231
-42.91827776132744,-0.6911342727172527,3.351978005986718,-0.06873340172037029,0,0,1762279114.6315231
40.637785058959764,-1.6429061720394407,1.1512223994669724,-0.759230574062554,0,0,1762279114.6315231
-24.614255698723923,2.6833456816980026,-2.9033710358544105,-1.020809525782777,0,0,1762279114.6315231
-16.75470060025892,-3.9379381896113377,1.2083729797301133,-2.692599413797169,0,0,1762279114.6315231
18.709646338557857,2.618878409049005,-0.7263470004808595,0.36364757608593995,0,0,1762279114.6315231
62.5724948143355,-1.5561470555675916,0.13777124248551564,3.020965139208872,0,0,1762279114.6315231
33.19979181196312,1.3190521610710875,-0.3778434756579237,1.790316967416006,0,0,1762279114.6315231
-104.05863726838861,0.06443616460509614,-0.7179218656274818,-1.8313902650616838,0,0,1762279114.6315231
-16.463364492608623,0.434811979988689,2.8602649950618075,-0.7820789986637202,0,0,1762279114.6315231
35.01759518758391,1.033656294886768,-0.46504439314345897,-1.4270494143620678,0,0,1762279114.6315231
16.047769708238395,-1.5448048728532546,-0.5364063798232988,0.7690127607361412,0,0,1762279114.6315231
-24.119743983218616,-0.03373779175601748,-1.368427364853694,1.2486804605691533,0,0,1762279114.6315231
15.217570477359065,0.40174232265573695,0.5839957798877405,0.6008642589093945,0,0,1762279114.6315231
5.701494515299236,-2.641213821851149,0.7706414512199311,-0.4485541309812582,0,0,1762279114.6315231
1.2535781633865684,1.4399393717821571,-1.6508414454754758,-0.7610636126821615,0,0,1762279114.6315231
6.245264472053393,-0.76338779314963,0.8013720061426403,-0.22114187797597998,0,0,1762279114.6315231
-22.80680991632881,3.9298664947439628,-0.5668489884028969,-0.5629187950225341,0,0,1762279114.6315231
25.003726573970894,-1.979797526835591,-0.020080339822765525,0.4203000160922772,0,0,1762279114.6315231
-21.42908182340692,-0.7650155618648925,2.396959010587595,0.8476337223593167,0,0,1762279114.6315231
-22.75291422028832,-0.07503945057848063,-0.08228604021247214,2.1152978766392425,0,0,1762279114.6315231
32.273853499695804,2.6005540007240158,-0.04505167374574492,-1.6126171459131966,0,0,1762279114.6315231
-27.978944904139276,-2.216503947775401,0.48166507620097077,-2.364183158884626,0,0,1762279114.6315231
40.38245789137271,-2.3644013858906807,-4.682683945577281,-1.6284793536637296,0,0,1762279114.6315231
20.74658951105392,2.405698988443053,-0.37744607565335464,2.0114049681993293,0,0,1762279114.6315231
-29.114102142776776,0.38368700112539483,3.629210790967061,2.8089098988321233,0,0,1762279114.6315231
-32.79364666961811,1.4223186506538132,0.9346642137667955,-0.6565576874868445,0,0,1762279114.6315231
16.720675108683988,-3.0564056982787005,-2.0817973146400446,-0.12506332408576468,0,0,1762279114.6315231
22.854763869942545,-0.6512892370554516,1.1988498465787378,2.328737869276595,0,0,1762279114.6315231
-5.884566858041156,2.2660140934424122,-1.585500820006823,-3.0772550666933447,0,0,1762279114.6315231
-38.577787289510866,0.08121677875881501,3.3667756443251444,-2.5513581220195194,0,0,1762279114.6315231
30.519322116843934,-1.1858149580409758,-0.4150340982217171,-0.999711436868927,0,0,1762279114.6315231
-4.748039824786603,2.5426565882723113,-1.9194936059444592,3.0305726971441596,0,0,1762279114.6315231
4.404537559708792,-1.1420091915803987,-1.1229769978764423,2.037889967805847,0,0,1762279114.6315231
8.217818399048253,0.30063859545166155,-1.5173083105208132,-1.6868268401748612,0,0,1762279114.6315231
-10.675193690696236,-3.1525804306902203,1.6101974211907693,1.2619998712965788,0,0,1762279114.6315231
36.38827010190761,2.3089617554781716,1.0338000528561353,-1.2486422637693346,0,0,1762279114.6315231
-26.636873880772832,-1.559300392968727,2.2335693741027627,0.8916749729905078,0,0,1762279114.6315231
-36.37461032707131,1.9717319611264155,-0.7301172144252551,-1.6837028275980799,0,0,1762279114.6315231
8.946530399062386,0.1154166486902443,0.509315707674079,0.2799085566858374,0,0,1762279114.6315231
20.919967906137405,-0.6128237845565441,-3.1036583529103745,0.5027709078889044,0,0,1762279114.6315231
-25.14055136887485,1.1540058953412475,-0.37680737317883894,1.1911892738716905,0,0,1762279114.6315231
81.24162602615158,-2.3734613847985657,0.6019626422381572,-1.2916255403832342,0,0,1762279114.6315231
-75.8575573711661,-0.35042771333806527,1.5538044327880167,0.14723001237453492,0,0,1762279114.6315231
7.184266234960288,1.8937992266215709,-0.9886215076543863,-1.9669409170053413,0,0,1762279114.6315231
-6.976618843117584,-0.18472119608183454,-1.8506300888863585,0.9871489293271756,0,0,1762279114.6315231
78.21247702952299,0.8114432417083757,3.1619771715088714,2.7780977840706513,0,0,1762279114.6315231
-75.60652694293778,-0.05782137275370199,1.3547161207081888,-1.7151105114144591,0,0,1762279114.6315231
3.6815132141233398,-1.4107959604016638,-2.123341764445242,0.7043486172467085,0,0,1762279114.6315231
1.1806596658085389,0.856329189233732,0.9723368373087854,-0.03297262821300024,0,0,1762279114.6315231
-8.422673079661735,-0.6192274144960689,-1.691138061895862,-1.7406315797756093,0,0,1762279114.6315231
48.221043858272026,-0.46502201563190454,-0.4428352976663331,0.5741426742212341,0,0,1762279114.6315231
-15.501026906366382,-0.21343588033371466,-1.1344645946774425,-0.26312632092758903,0,0,1762279114.6315231
-22.182258191473338,-1.086380692728329,3.280992424483777,0.9993977503256128,0,0,1762279114.6315231
-9.657028376445849,2.869898095913851,-0.1508646134341012,0.3458919133476342,0,0,1762279114.6315231
8.423446996809876,0.6565154592752861,0.24233265466955226,-2.446539661624115,0,0,1762279114.6315231
-8.018785053186656,-0.7656635323972694,-2.8834878603778407,2.9474386083224466,0,0,1762279114.6315231
40.2664812802833,-0.15484999207927475,-1.4075215282423506,-0.8036384495513442,0,0,1762279114.6315231
40.77098003839142,0.7335584499709631,3.220153447145701,0.9353033259545793,0,0,1762279114.6315231
-85.73482293815745,-2.4556444035387126,2.1730530124835234,-2.649129530544592,0,0,1762279114.6315231
5.000509961188325,1.1559439413340977,0.3418003306625448,0.9892682768130123,0,0,1762279114.6315231
16.58095339368909,-3.0022362725073513,-1.3714552244778289,0.019904181684153446,0,0,1762279114.6315231
-17.692285320772818,1.8533623755951794,-4.292336271394144,-0.27190459908812925,0,0,1762279114.6315231
8.351751683375786,1.3030933447747859,1.3336854072598354,0.5445859130797327,0,0,1762279114.6315231
12.298506544508642,0.4774633433028396,2.592517413505061,2.7922080445152933,0,0,1762279114.6315231
32.16191818176872,-0.9794692501197932,-2.072927535563718,-3.6681153434050806,0,0,1762279114.6315231
-53.48834536104021,3.903268121861274,1.0373585182791092,0.9342923634038067,0,0,1762279114.6315231
20.258981274889525,-1.839412904939555,-0.8097806650082519,0.020335852792534387,0,0,1762279114.6315231
-0.0870066555861716,-2.0844071579772008,3.6413116789472504,-2.1680537565883933,0,0,1762279114.6315231
10.393596387265138,-0.9206129479749275,-1.9455252941542807,2.04104386325177,0,0,1762279114.6315231
9.794433189213688,-0.8321668506950329,-0.20414493251143426,0.6787208082111401,0,0,1762279114.6315231
-52.39610520945085,0.7105540070882734,-1.1784802020613627,-0.7544754753351008,0,0,1762279114.6315231
27.927109131189948,0.6569945896613736,-2.504428070392826,2.235808905369383,0,0,1762279114.6315231
-0.5293291551360683,-2.289371452813008,0.29690942441181395,-2.4964677148111196,0,0,1762279114.6315231
32.98181224645262,8.844794471365574,7.246437109222288,3.123068770020269,0,0,1762279114.6315231
-37.776249469531116,-4.613055136866931,-4.157356220905287,-6.0383076117192624,0,0,1762279114.6315231
-1.6892742434387988,-1.6188585412156395,1.3744154138183726,2.0486838833000816,0,0,1762279114.6315231
-30.04569610662495,-0.6190023396170781,-2.172153432490048,0.7373828775434148,0,0,1762279114.6315231
43.122674728898225,1.1967110119750508,0.2363551948469426,2.3743502365269444,0,0,1762279114.6315231
48.32302621020472,-1.0073522580824488,-0.6912671081274842,-1.3443936072246352,0,0,1762279114.6315231
-13.033089217720873,0.13059255954032079,-1.0086330623291597,-0.7602478725354312,0,0,1762279114.6315231
-56.79093810601891,0.6758223643439643,-0.4166192724708531,0.9191488773295927,0,0,1762279114.6315231
-9.69280574943424,0.630008371111996,3.2372550412422054,-1.5123123226755584,0,0,1762279114.6315231
8.662546532470675,-1.0685558206603516,1.547309128392665,2.338831962934847,0,0,1762279114.6315231
27.252312342543235,1.4437379713691043,0.3271066129674527,-3.39508409069449,0,0,1762279114.6315231
-4.527327837477162,-0.2342540951201562,-0.24452194758482707,1.9297589649957203,0,0,1762279114.6315231
11.313904029139902,-0.6933280426591079,-4.210397231091799,0.5841904137248128,0,0,1762279114.6315231
-13.719948644999052,-3.690261569704274,-1.7149071013344024,-1.3202054713174,0,0,1762279114.6315231
-26.444166680864157,6.070759427333758,1.3191134921439878,1.8513208378915296,0,0,1762279114.6315231
16.91920641616834,-3.281157232698664,1.8130534488775478,-0.39493955597707026,0,0,1762279114.6315231
59.31869996412323,0.6773889330880526,1.857538870116244,-1.9658444186229282,0,0,1762279114.6315231
-45.76670891693612,1.243278792580083,0.2528672939118891,1.311025914954021,0,0,1762279114.6315231
-13.873385537753213,-1.4890396456145514,-0.7648533187861913,0.3945067308843061,0,0,1762279114.6315231
-5.973745882026081,2.2834881892202,-2.2478236610060596,-0.1384022508463665,0,0,1762279114.6315231
7.3982329192462375,-2.235369948592953,1.2892471982939009,-0.4539272618193847,0,0,1762279114.6315231
6.070410929066904,-2.792279424562669,-0.22021690936849378,-1.879699403477286,0,0,1762279114.6315231
-5.322072408711473,2.6003823567881725,0.24672478526510996,2.505173438350204,0,0,1762279114.6315231
33.57597032745852,1.8935808643266274,-1.2389763863155974,1.6007743296237373,0,0,1762279114.6315231
-15.279596890750122,-0.5959887435216265,0.6667757948745638,-1.382428521184342,0,0,1762279114.6315231
-34.4574286635076,1.010784565529309,0.6606828009072477,-0.7701676987988724,0,0,1762279114.6315231
13.998081741904079,-1.5051094576259125,0.46846402049205016,-2.06336706063642,0,0,1762279114.6315231
-1.8371038150214642,-2.1417236804115705,-0.015850495376941852,0.5593733850015224,0,0,1762279114.6315231
42.8880497305535,1.3528826690060711,-0.8407371033395967,2.9410495156596577,0,0,1762279114.6315231
-0.43059935645550573,-0.7307570269442647,0.3279554388030463,-0.7834142273391065,0,0,1762279114.6315231
-53.594852206009776,1.7325012596196858,-0.16684753807060218,0.03180871073055922,0,0,1762279114.6315231
-5.141689957056702,0.8865500853670368,1.325331958151632,-0.7480420741993706,0,0,1762279114.6315231
8.865293544199924,-0.4414396675223003,-2.9615994812627404,0.3989154960255705,0,0,1762279114.6315231
35.20331723162528,-2.0663816507615183,0.8147812077130353,-0.315571310952211,0,0,1762279114.6315231
-5.986523558409632,-0.49243184588054917,0.8461724138550355,-0.7595481067654327,0,0,1762279114.6315231
42.82642982551859,3.5170497524348985,0.34099374153995093,1.2925429208746095,0,0,1762279114.6315231
-91.12065898654009,-0.41257548404755057,-0.8751434931251961,-1.4953963441416143,0,0,1762279114.6315231
15.467574018147893,-2.3024059191308694,0.424739794131229,2.255050067908993,0,0,1762279114.6315231
1.5003943710333203,-0.7667943800807774,0.27049636508482094,-0.7096011062504933,0,0,1762279114.6315231
37.00424695925731,0.8617520371647408,1.8221775131609488,-0.8706845228075751,0,0,1762279114.6315231
15.80947593430504,0.7624652038486032,-1.723461966460722,-1.5275787292944905,0,0,1762279114.6315231
-29.76773868386137,1.5598209041360436,0.061428662352976886,0.815018206005943,0,0,1762279114.6315231
1.4919417486862978,-0.4840323920193721,-0.04566210903237033,1.899164915798697,0,0,1762279114.6315231
-17.424297121099215,-3.4450947453839653,-3.1071770420765117,1.8157207045162953,0,0,1762279114.6315231
-17.224448241594473,3.60288608881593,0.527292882481817,-0.8073966636460128,0,0,1762279114.6315231
11.585274667013147,0.29285711133704034,4.455825793261057,-3.48012681479263,0,0,1762279114.6315231
21.765305365916976,-2.1814158216817954,-0.5306164349272471,-1.4203482924019508,0,0,1762279114.6315231
77.40264399761462,-0.9668600060731941,-0.028248617799407117,4.055989068795027,0,0,1762279114.6315231
-65.89557369589932,0.39064739456018216,-4.900748703797844,-1.3740151035615136,0,0,1762279114.6315231
-53.80819765331534,0.9023802666865617,4.832452377584468,0.9127039228121355,0,0,1762279114.6315231
26.848163465560425,2.127720473583722,-2.8196716737028495,0.29733281310076476,0,0,1762279114.6315231
-2.0204266607981474,-2.227378534713001,0.21104115400580303,-0.7776514593414774,0,0,1762279114.6315231
6.030232135483937,1.2218602856393568,1.5644440026672488,-0.5656992603193697,0,0,1762279114.6315231
11.822178129401474,0.33313223654557717,0.842805459409512,0.00835116023494683,0,0,1762279114.6315231
2.523252595402359,-1.298783196082509,0.6331831758335837,-0.06735859580895229,0,0,1762279114.6315231
29.28640344058217,-1.3566178887585982,0.6368624593434327,0.9002130057803871,0,0,1762279114.6315231
-36.070991128942346,-0.32182746612646723,-5.232646556452319,0.9455353857759229,0,0,1762279114.6315231
-2.811896839899889,2.5330603737916704,0.7213813738315937,-0.8640911384983601,0,0,1762279114.6315231
-27.447790078908138,1.5816037611509297,-0.5045279391925179,0.23275364064341117,0,0,1762279114.6315231
37.78962793635243,-0.693207482385673,0.8233331771170328,-2.255992129559805,0,0,1762279114.6315231
30.30583937993238,-3.747034751502764,3.6389037757347578,-0.2263744836147904,0,0,1762279114.6315231
-33.075881690076166,1.3774514144096752,0.9147030437302064,1.8173034541745299,0,0,1762279114.6315231
-26.770637282435523,-0.9273905660814667,-3.287439816157651,2.452538143931937,0,0,1762279114.6315231
4.9861838146150275,1.5942421316194928,-0.6655399880621535,-3.969121948053828,0,0,1762279114.6315231
9.45737890527182,0.30969556037614415,3.3277141681050724,2.5901914860957236,0,0,1762279114.6315231
-15.711147404364732,2.7303024052264284,-2.2088687055108704,-1.5485099827695326,0,0,1762279114.6315231
73.02904577421239,-2.5001376926202643,-2.069464760672397,0.8542274708278393,0,0,1762279114.6315231
-30.854578081526483,-0.6286073452593514,2.3554165533190137,-0.0708097488100343,0,0,1762279114.6315231
35.64258192526568,-0.8558155760795675,-0.9579866903866386,-0.5395520019949879,0,0,1762279114.6315231
-92.79979860744135,1.295736214071553,-1.0621285251482253,-0.40509764344515187,0,0,1762279114.6315231
-6.160207043553184,-1.3377540168053572,1.5441005538747523,0.8156536443244602,0,0,1762279114.6315231
11.733842813929526,0.5830488156025949,0.912181160292812,0.6127620969137662,0,0,1762279114.6315231
40.86461834124844,0.436593321861216,0.3961082472462975,-0.9387970283765043,0,0,1762279114.6315231
59.190095275088424,1.6817711512050673,-1.8866283663179022,-1.0714712366923067,0,0,1762279114.6315231
-61.44112581452958,-1.3529994699222112,1.72189342738474,0.6382218015032401,0,0,1762279114.6315231
-17.235969337357904,-0.5381383204419427,-1.9134096874401674,2.4057917793149164,0,0,1762279114.6315231
-7.089346546263449,-0.7322097866795151,1.9958408217750647,-2.1341326552426314,0,0,1762279114.6315231
14.9605995780556,0.8048533875312164,-0.9678784095201611,-0.8451126701650078,0,0,1762279114.6315231
19.393289652890736,0.7582870515219624,-2.8710967544130344,1.570703724641321,0,0,1762279114.6315231
7.2945156497889245,-0.20087523310183908,2.017839959816091,0.3469688875572522,0,0,1762279114.6315231
-58.07010360378106,-0.2558210819560251,2.470951565364843,0.8875914322035964,0,0,1762279114.6315231
5.999960055284846,-1.006177259159966,-2.2003282440184955,-2.7007804028368776,0,0,1762279114.6315231
68.5188018533131,1.2209449682684257,2.9943921757598773,-0.9984621732678497,0,0,1762279114.6315231
-13.020152737804834,1.3532587183052247,-3.289696141043122,2.7210791780513546,0,0,1762279114.6315231
-12.876350326986685,-1.981251995858975,-2.0971342270756055,-0.6975534689901162,0,0,1762279114.6315231
-29.23533450352523,-1.0805190989375415,3.3130784960978974,2.10286492502485,0,0,1762279114.6315231
-21.45581684909002,1.3070959202083403,0.5682389623457867,-3.880304675352378,0,0,1762279114.6315231
10.871118254802704,-0.695479964148688,-1.340855729078746,1.815287539972956,0,0,1762279114.6315231
82.54031878397963,0.7088332833295535,-1.4637093030498018,-1.501445607849374,0,0,1762279114.6315231
-46.55727870777649,1.804957413529376,4.28057672515158,3.1735376975831753,0,0,1762279114.6315231
2.605854039278701,-1.310097219912148,-2.3431735830675278,-0.25616768910972765,0,0,1762279114.6315231
-35.557492152594136,-0.6884280226121985,-0.8209025112067642,-1.8461459129235576,0,0,1762279114.6315231
10.882456088362462,-0.246072424238489,-0.7685104927302119,-0.26188370038029696,0,0,1762279114.6315231
22.12764212015136,1.4373043609171219,1.5434419282477196,0.6760385553470553,0,0,1762279114.6315231
-4.4316117884744175,-0.7532035478154512,1.0735552560050623,-1.1999597704291223,0,0,1762279114.6315231
-2.1729898658381974,-2.192273268153549,-1.4474404882300085,2.327023724865698,0,0,1762279114.6315231
-2.979883499586648,0.03287917050274846,-0.2871011264143694,-2.2959177209536517,0,0,1762279114.6315231
7.6314953520281765,3.381775157451037,0.2585625023632739,1.8667766493822038,0,0,1762279114.6315231
-23.283466243219518,1.9561867619642241,-1.232471209449048,-1.4617421476601058,0,0,1762279114.6315231
20.98811900104456,-3.4414374881458554,2.581679808667455,1.8621487577238856,0,0,1762279114.6315231
4.357290216784409,-0.7484615210539175,-0.6913932654700277,-0.1356211412547922,0,0,1762279114.6315231
-15.79763280317864,-0.7314163394438685,1.3242680830640023,0.16973883805420617,0,0,1762279114.6315231
19.81984339618112,0.694915074251709,-2.6575013640198657,-1.8417776209490624,0,0,1762279114.6315231
-14.61858669480185,2.335777410103094,0.5769332494142736,-0.10166059327776791,0,0,1762279114.6315231
-6.632779712853344,-0.8192725707614009,-0.6735488930363277,-1.699890062521981,0,0,1762279114.6315231
10.069521925038531,-1.3126109667979386,0.5115555198954902,2.4947243007586444,0,0,1762279114.6315231
8.766929217770056,0.7386933966572808,1.7521493477293812,0.3381658158266353,0,0,1762279114.6315231
-18.025410358431973,-1.1869699739230828,0.05809388699760702,1.145146630977539,0,0,1762279114.6315231
4.272196590546776,1.7363861513485364,-3.2756642696340292,-0.8399670818666438,0,0,1762279114.6315231
-19.31826684164269,1.568642268446385,2.2122629511183995,0.16144537093977937,0,0,1762279114.6315231
7.869102152346747,-1.2237614288262029,-1.1902561724099843,-0.8506753248590295,0,0,1762279114.6315231
75.57411610565562,-3.350679549288471,-1.277144661541965,0.3012153118007561,0,0,1762279114.6315231
-67.80431341293524,0.5833509481147428,4.188318312556564,-1.4437222536881147,0,0,1762279114.6315231
19.65718946213327,2.9203512959984383,-0.26872098486290524,1.2867407924364762,0,0,1762279114.6315231
-15.827558552618235,-1.3725196211904485,-0.1043748403495722,-0.3526966718486084,0,0,1762279114.6315231
-30.31955782934996,0.3880995711125063,0.0794627189589945,-1.7139870952131722,0,0,1762279114.6315231
44.249688263914784,-0.5186062643169165,-5.1226950396376685,4.068487371243814,0,0,1762279114.6315231
-31.19021703571097,2.0008044944871726,3.701837107057439,-3.544086113538475,0,0,1762279114.6315231
36.893399859071046,-1.4124817384478816,-0.9368373658243163,1.0681279768903609,0,0,1762279114.6315231
-22.95785606388856,0.7496880419189315,-1.6013173532258829,2.426826273656196,0,0,1762279114.6315231
25.458334696142998,-2.8937283714019286,-0.9612053897025522,-2.214299106251171,0,0,1762279114.6315231
-39.04971118826901,1.3246151518038851,7.250811658157877,0.9715291983839277,0,0,1762279114.6315231
33.92291023286234,0.7522322486745004,-0.4194284822362754,1.014021797698893,0,0,1762279114.6315231
2.0932110557675356,2.121981490781728,-3.16135945021685,-1.6554879019237674,0,0,1762279114.6315231
-26.954472138256765,-2.8309949076418186,-2.6497643417877996,-2.4421230703426637,0,0,1762279114.6315231
14.709661712963596,0.0334790836283486,2.7307853159517332,0.9120921611864399,0,0,1762279114.6315231
-8.237796774795736,-1.1518904084041637,-0.4996064255154114,-0.3561022663734429,0,0,1762279114.6315231
2.207641737624427,0.5991363975633023,-2.717957967525941,1.0261779895123395,0,0,1762279114.6315231
-2.2056859777801874,2.744363742081938,2.8599987554772097,3.184839630476325,0,0,1762279114.6315231
-0.6408327284315078,0.47383562967936776,1.2339127419033067,-1.6003974549277369,0,0,1762279114.6315231
-22.736992357487445,-1.7896214849783365,-1.9187015424933984,1.2852048738194903,0,0,1762279114.6315231
62.13406110483781,-1.1766150105870117,1.948633923634651,-1.4126576291003292,0,0,1762279114.6315231
-0.5228050453326831,0.4149793298178662,-1.8291350290975388,-3.8385847830193516,0,0,1762279114.6315231
-39.49823136661328,-0.06451527995682389,1.7799508625043012,3.033712023780078,0,0,1762279114.6315231
-7.013767922775342,-2.138728660613294,-2.4783974782956806,0.4901223794475307,0,0,1762279114.6315231
-19.337226834541205,4.326340159768237,-1.730158726599122,-2.17862228911559,0,0,1762279114.6315231
43.25885375592963,-0.788737624010859,1.096362789530062,2.945652183568327,0,0,1762279114.6315231
2.283860667657092,0.958470699874393,5.887831322771716,-0.7837077290859858,0,0,1762279114.6315231
-35.95802651949799,-2.722694819998598,-3.043172887427312,-0.084428884815521,0,0,1762279114.6315231
47.98136050892866,0.12363356373634218,-0.9809067256269008,-1.1329524048284436,0,0,1762279114.6315231
-15.67901049736246,2.308259270326703,0.12462979559965093,0.46150398460786723,0,0,1762279114.6315231
-29.306116716825468,-1.8768055219855757,-2.412445252596285,1.8593225556877864,0,0,1762279114.6315231
14.805898566188235,-1.8964570250927133,0.943375729972122,-1.2960359458097566,0,0,1762279114.6315231
21.978340099039837,1.5595262164988057,0.9624169932538824,-0.07883620978202041,0,0,1762279114.6315231
0.7882358085774868,0.053057931118472165,1.7965812937189884,-1.2943327047973525,0,0,1762279114.6315231
-24.435392568167753,-0.7914577849282185,-1.1377197289382286,-1.2952902486608426,0,0,1762279114.6315231
-17.699899161783737,5.533162076910708,1.5404272903736869,5.431127102459623,0,0,1762279114.6315231
0.10741244004564406,-3.1271303052355646,-4.8366180827356136,-2.8220033864211147,0,0,1762279114.6315231
36.03934947159913,-0.5986828123511055,2.7735570808037515,-0.8712732015367303,0,0,1762279114.6315231
-18.2924213762029,-0.8219646993530266,-0.07806547929495619,0.4073212618844634,0,0,1762279114.6315231
26.773641901681682,-0.1873370458250982,0.5966060205494292,0.0012386271727804759,0,0,1762279114.6315231
28.77742624527962,-0.31558609054898534,1.964861127505291,0.2647802252275039,0,0,1762279114.6315231
-56.34331023083257,-0.45941144817041285,-3.697686993850196,1.4196772824091446,0,0,1762279114.6315231
-35.56583317912309,-0.2587534146215682,1.2677016850961638,0.9292276588150558,0,0,1762279114.6315231
33.850817200333765,2.836620515743812,-2.251982142710218,-3.2258576276852193,0,0,1762279114.6315231
28.318945166654792,0.7654762638507521,5.461670686445371,-1.2391142383393698,0,0,1762279114.6315231
-32.46084669380784,-2.6279584383024646,-3.2596351609120737,-1.3195425476829263,0,0,1762279114.6315231
7.804409628112409,0.3684068152613961,-4.916148039826787,2.2233336652732065,0,0,1762279114.6315231
11.042942478219336,4.837710537029741,8.18912644243397,7.322292300436804,0,0,1762279114.6315231
13.440368263040273,-8.163758735243457,-2.6572576777458403,-5.922063392669122,0,0,1762279114.6315231
-17.489615531940935,1.7995213159284438,3.741092562282625,-0.41735294820977153,0,0,1762279114.6315231
-6.125810350660788,2.5293199811705875,-6.235818748237798,-1.0374158711574515,0,0,1762279114.6315231
-14.858649377463287,-0.7422558646693117,-2.160423837722812,2.83498903561597,0,0,1762279114.6315231
25.937863212957026,0.9920612553051726,4.465965605379157,-1.2184533181807062,0,0,1762279114.6315231
-13.639723708914898,-1.2197341163723512,0.15083868742751871,-0.6017887641574269,0,0,1762279114.6315231
21.15121892274653,-0.39442886974714425,0.1599579611921972,-0.5518558748610498,0,0,1762279114.6315231
0.8611361814606145,0.12737601617408026,-0.6720828783241987,-1.7820976974206544,0,0,1762279114.6315231
-18.80823686502453,0.24785474496843493,1.6375957747486494,0.13768525829947778,0,0,1762279114.6315231
-24.571697054513937,1.4564155665410208,-0.984283911270077,4.275808654994783,0,0,1762279114.6315231
40.560132937066044,1.5314494413389241,-2.1315531668767695,1.5923186408286634,0,0,1762279114.6315231
6.1187063428309525,-4.132519533038139,1.067582756979155,-0.12035927687701554,0,0,1762279114.6315231
-21.025489641855525,0.48235468417983296,1.2568371901711586,-2.82622323170523,0,0,1762279114.6315231
-12.034781442193582,0.8671343437076819,-0.6349700593034978,-4.011840480031894,0,0,1762279114.6315231
2.1228602491786877,-1.159929820263636,0.8561784490469421,0.07158374969411026,0,0,1762279114.6315231
8.978339864845132,1.994312460624883,-3.700566130256808,2.6418259934443684,0,0,1762279114.6315231
-2.385351463208823,0.36531403842896343,3.550028904460075,1.4788570367121996,0,0,1762279114.6315231
27.121587210314576,-5.070200556385441,-4.3418670750576185,3.305609811695954,0,0,1762279114.6315231
19.876571140291276,4.594391842835769,4.976900142962875,0.1948528768986156,0,0,1762279114.6315231
-49.08575558075026,1.4790916845231994,0.9003062181093208,-3.560235627419568,0,0,1762279114.6315231
-10.405063539005925,-0.17008021387915506,-1.3948270421095494,-5.65168976189401,0,0,1762279114.6315231
-7.317140753819025,-1.4450875518870576,-0.12095025750813662,0.8856467415423174,0,0,1762279114.6315231
21.153007954526224,-1.910489018442321,-0.5743740242628284,3.9548001016682237,0,0,1762279114.6315231
18.418782178912114,-0.1517391847886679,-2.6176558263676135,1.2300875649939078,0,0,1762279114.6315231
0.971380524992482,2.680633500128874,1.9076530759750103,0.9874853872322941,0,0,1762279114.6315231
-25.834192566177684,-2.802256396235476,-0.6427501438689296,0.057596934473067,0,0,1762279114.6315231
32.421076507479164,1.3515681794619006,-0.7335416796600265,0.15902279696445368,0,0,1762279114.6315231
-43.080944125023734,1.3659055552533441,3.5621561010087937,-2.220903623776962,0,0,1762279114.6315231
5.103513121372337,0.9076702052018437,0.5126974198679842,-2.574482167978686,0,0,1762279114.6315231
43.34986149195528,-2.7984448721860304,-3.4594863233315167,2.8927898089241317,0,0,1762279114.6315231
-34.96512290944015,-0.15826363616792535,1.7356222911116477,-3.3652223440463565,0,0,1762279114.6315231
9.960354292989788,0.883359185565876,-1.2800696003968544,3.031737119871356,0,0,1762279114.6315231
16.10736866942472,-0.5878088465843685,1.5758179263826686,1.8243176624028978,0,0,1762279114.6315231
-33.20816512161852,-0.09864319560788258,-0.3093704640601948,-0.725150340651871,0,0,1762279114.6315231
25.148014281556847,1.651113186435034,-1.4771145086284063,-1.0367958335346619,0,0,1762279114.6315231
-19.91363785581747,1.7135649610140768,-0.33412539989189755,0.38668009405522646,0,0,1762279114.6315231
-10.988707091106907,-3.9793914129648837,0.14375224924264746,-0.39161999813975024,0,0,1762279114.6315231
21.860000402439727,1.3235558168056163,2.303318124186692,-0.22520036230116475,0,0,1762279114.6315231
22.087424084507365,-0.10981636541811392,-0.9182975555478419,1.1088561101453693,0,0,1762279114.6315231
-13.144982263796107,-0.3734996765757155,-0.6660006415047622,-3.281917332822784,0,0,1762279114.6315231
-8.201683793516775,3.9645120178309976,0.7291532554189353,1.0378909465688473,0,0,1762279114.6315231
-29.35823994826459,-3.8455547029221786,0.3234275969652442,1.3755837956611083,0,0,1762279114.6315231
53.922117041510845,-2.9274643695516387,1.062842613864889,1.7254682902067557,0,0,1762279114.6315231
-33.95991368888325,0.9925534252385623,-0.785448128573396,0.6412521344655417,0,0,1762279114.6315231
-1.3993845522420982,2.8783525913805335,-4.411360044759959,-1.677622340707783,0,0,1762279114.6315231
5.354502692738298,1.6464651942839141,1.6484029241989946,-2.3952760088244154,0,0,1762279114.6315231
5.885196457819707,-0.7453112647409513,1.9442646770720096,-0.18851822321556888,0,0,1762279114.6315231
29.548646838732605,0.2254425593002768,2.7073925776215,2.8450738256174675,0,0,1762279114.6315231
-49.447165833296175,-2.6395402078159904,-3.06597246582353,-1.733292667066442,0,0,1762279114.6315231
13.000612846865456,0.05116905718885529,-0.2764372150842265,0.27772683728091885,0,0,1762279114.6315231
-6.337506580235204,-0.5367413606990057,-0.7174284312412871,1.2044220254988012,0,0,1762279114.6315231
26.43109380393222,1.03224531191904,0.8284070706024466,-0.1139949940233549,0,0,1762279114.6315231
-43.80244170810992,2.3209000411136396,2.52882147636969,0.48130062616211283,0,0,1762279114.6315231
64.28545601941865,-1.2680808345218226,0.0692952716363627,-0.8218530518170709,0,0,1762279114.6315231
-48.81278213245315,0.0029219957232798017,-2.5910007583764005,-0.13185783681995344,0,0,1762279114.6315231
30.73762800436097,-1.8062661130497746,-1.711172670375812,-2.5594479633326164,0,0,1762279114.6315231
-25.006301996955024,2.0522873640705344,0.566263140597809,2.868231655009655,0,0,1762279114.6315231
8.582394269841616,-2.5516279395530876,-0.24742714644243813,-1.3057880097767993,0,0,1762279114.6315231
0.1982159585751469,0.9123387311419715,2.695302360661718,0.9514686815421252,0,0,1762279114.6315231
-15.105831430293195,0.5761462864984429,0.49543913774336645,0.5399706432741468,0,0,1762279114.6315231
2.0418567271893435,0.36780057365337987,-0.07347261942797426,0.6088331092156983,0,0,1762279114.6315231
-10.3177876767924,1.0334094348627165,-0.6519619336592473,-0.3225092718104979,0,0,1762279114.6315231
53.76345989839221,0.9059451778571292,-0.6847656107826219,-1.2219840257482533,0,0,1762279114.6315231
-2.394415087346,-2.0236307451811757,0.8323412339878364,-0.022046094484556668,0,0,1762279114.6315231
-32.460160984584576,-0.7395674648633772,-2.8826090714532198,-0.4567422921982789,0,0,1762279114.6315231
9.137004901481962,0.36820966905816194,1.5609981626321547,0.7024175705689076,0,0,1762279114.6315231
3.298769382696143,-0.12284710157904058,-0.7880163125034043,-1.413214502990081,0,0,1762279114.6315231
-26.88909498654804,-1.280181273258785,1.033870894458424,1.2509844185543408,0,0,1762279114.6315231
-12.83078020745664,1.4811278452652241,0.1988416780051777,1.846590575919972,0,0,1762279114.6315231
-1.485006566981,2.545547961038224,0.23696746015870726,-0.8613731693752437,0,0,1762279114.6315231
20.799322384105896,-2.965612847078788,3.2035798245324845,-0.21892313226331025,0,0,1762279114.6315231
39.475264567478405,2.125946689927477,-2.4246649562578653,-0.8119359930867536,0,0,1762279114.6315231
24.20008532982435,-3.25338283644169,-1.7025996813636588,0.9403940061732348,0,0,1762279114.6315231
-27.49401628901545,1.1831342090440233,-1.9847330161410013,-1.5572103227327796,0,0,1762279114.6315231
-40.716604568353844,-0.8037830466297126,2.224550284358785,-1.069799304732118,0,0,1762279114.6315231
27.223314575308812,3.3102038641299005,0.9175918465887954,1.2605666698171414,0,0,1762279114.6315231
-58.081645954579876,-0.5519762271240729,-0.7879614235216605,2.504407328023818,0,0,1762279114.6315231
45.04496431565346,-1.1071932355007719,1.0566725948547921,-1.0559118718386753,0,0,1762279114.6315231
-31.116561010769278,0.2159406334853119,-0.9943229753874769,-0.4036572859589691,0,0,1762279114.6315231
28.912599847633878,-0.07244673311638283,1.5955450601203693,-0.01370194192648816,0,0,1762279114.6315231
52.81688098966023,-1.4290064960921887,-0.5208342793931507,-0.4691658039602045,0,0,1762279114.6315231
-55.7917487691425,-1.6726416368010681,0.42684701908862116,0.5222293412714273,0,0,1762279114.6315231
15.670888558047485,1.6142011898700415,-3.7869571003031637,-1.278316810886785,0,0,1762279114.6315231
7.841808060114213,1.294732215001261,-0.6607540871662102,-0.2861583298256703,0,0,1762279114.6315231
-28.668076307442195,3.8597880071983437,3.645863449423081,0.6419244656483651,0,0,1762279114.6315231
-7.943397677464771,-4.193300666387849,2.290212736819376,0.9859199162940911,0,0,1762279114.6315231
18.471886325392266,-1.0420121626382552,-2.520908579673018,0.05383455403970591,0,0,1762279114.6315231
-21.939641446399307,1.3115353581193605,0.28190164481691343,1.2802825741456798,0,0,1762279114.6315231
75.39168333214057,-0.030579045830311954,2.3943451782916214,-0.21545932924672084,0,0,1762279114.6315231
-69.78954759896499,-0.1094771171410855,-4.3279469492188145,-2.522664886044629,0,0,1762279114.6315231
28.47363446124994,1.098177608641985,-0.6389266748757795,0.462096429890103,0,0,1762279114.6315231
1.2392462169595235,-2.4827654878154477,-0.807483992369449,-2.7197715234348885,0,0,1762279114.6315231
-41.9863257771092,0.3616247494442994,3.74469607081559,1.7895053267198429,0,0,1762279114.6315231
-10.315463512420838,0.7494314265347874,0.5769149209465768,1.3959667881087445,0,0,1762279114.6315231
39.672604991308795,0.7846514445577095,0.9296540239029326,3.778541678425621,0,0,1762279114.6315231
55.977500316954405,-0.035089325168576255,-3.1628535636317756,-1.103922665275139,0,0,1762279114.6315231
-33.7242142380451,-0.348670206403234,1.2049062780098974,-1.6866231364907043,0,0,1762279114.6315231
-19.206980693359593,0.8705977847444131,-1.5566829275008447,-2.393214827946516,0,0,1762279114.6315231
-29.172874997320278,-0.13386330532738053,0.07255403701428688,0.3519424256274731,0,0,1762279114.6315231
13.001043577435322,-0.21603468608898443,2.297238354957317,-1.1967305051680688,0,0,1762279114.6315231
9.47739296989276,-1.5020158039859803,-0.8643133752797263,1.4999978054085508,0,0,1762279114.6315231
31.188937567184755,-2.7065188879909132,1.60553195110811,-0.025852500586735556,0,0,1762279114.6315231
-44.239724922611956,2.5610940535026208,-3.8197625431795297,1.7825847080010464,0,0,1762279114.6315231
-13.397556061495829,1.6695162463923017,-0.6848595647779857,0.6858339701056412,0,0,1762279114.6315231
9.306267637023158,0.6498733030818021,2.9838387038307204,-0.4952454003683992,0,0,1762279114.6315231
101.3366701272622,2.3660562950190656,1.208159540462337,0.09808853546886473,0,0,1762279114.6315231
-57.7001379685425,-2.9874808092596656,0.19075677901594557,-1.4888716120718868,0,0,1762279114.6315231
-51.52729924387486,-0.727029867367192,-2.1488556793440776,-0.26270237515592126,0,0,1762279114.6315231
1.9802033876285905,-3.3271027422323303,-0.48989955931145174,-2.9662385564015032,0,0,1762279114.6315231
4.707131933501324,1.7438990948141886,-0.40081835187362375,3.480429011850603,0,0,1762279114.6315231
53.70347392896857,1.4211261323853348,2.7789186316236947,2.853037058062506,0,0,1762279114.6315231
-10.978633429817759,0.30952383866023314,-3.0713603743079525,-2.298893638323104,0,0,1762279114.6315231
-30.415079739410434,0.8767505513331902,2.410242171970435,-2.3616169267937126,0,0,1762279114.6315231
-0.4431285826425216,1.0145267542827479,-1.5616558835899883,1.2141702298299846,0,0,1762279114.6315231
-20.634616754406306,-1.0732045845222662,0.4711933681718957,1.4647226481768454,0,0,1762279114.6315231
23.447161635593766,-1.214894892970025,1.0821812406341527,-0.9398895433382511,0,0,1762279114.6315231
89.98205145770274,-1.4048683739270362,0.32623288527964295,-0.1337559426804218,0,0,1762279114.6315231
-81.39459925797134,1.7873874202297526,-1.4028582606905093,0.3451057685699933,0,0,1762279114.6315231
-24.294496926500152,-1.1266017061095681,-0.6132882582492742,1.4933172799710088,0,0,1762279114.6315231
-26.14651095181429,0.5118790578635324,-0.2609729523017731,-1.498535775958911,0,0,1762279114.6315231
47.07802950449943,-0.2427467993261426,0.8356882545810497,-1.7522783614505513,0,0,1762279114.6315231
11.7325260292635,3.8477474247433494,0.3185933524742116,1.0436329478799466,0,0,1762279114.6315231
23.165374733457238,-1.70458927513546,1.5828986737420228,0.41829117248281505,0,0,1762279114.6315231
16.741799626422715,-2.094533663002015,-2.320334901538428,-0.31959462577587255,0,0,1762279114.6315231
-64.89522829296655,-1.3871083203163097,2.092087640666486,2.0794306855485636,0,0,1762279114.6315231
-37.86284348161129,1.4070926060659088,-2.374068389405108,-1.9560052434069033,0,0,1762279114.6315231
33.91191492222375,0.9830839076402277,1.275067265736387,1.0615519870800902,0,0,1762279114.6315231
35.56225887149021,0.19916210717038718,-2.656552205164911,-1.805016785509221,0,0,1762279114.6315231
-19.40977348079661,0.8429610264307006,1.7584697393493778,2.606705880157042,0,0,1762279114.6315231
6.989537284073179,-1.329109486275251,1.4800224717007269,-2.9196683554350695,0,0,1762279114.6315231
30.01302179552566,1.6073676387727724,1.3076743490647431,1.5633775006437751,0,0,1762279114.6315231
12.365730757015573,-4.572213722311854,-2.4489729777728053,-0.9632101132132492,0,0,1762279114.6315231
-79.14793990001675,1.461731830457938,-0.2670492756268582,2.383227364640329,0,0,1762279114.6315231
2.353861694200387,1.007948913744667,2.925269433961605,-2.340713982763081,0,0,1762279114.6315231
13.511982317275576,1.925204576899835,-4.634354217049784,0.25854937466481986,0,0,1762279114.6315231
31.92321204498756,0.5378167539221429,0.6894661926391834,0.8124693632990592,0,0,1762279114.6315231
-25.973449286629194,-0.4055097843214204,0.33340086080791626,-0.2819924051912393,0,0,1762279114.6315231
24.563830878105325,-2.2474691759182317,2.284619179839002,0.45347063984775854,0,0,1762279114.6315231
-16.428315852569906,-0.4201827631902013,-0.9772643119172706,-1.3936093046144282,0,0,1762279114.6315231
30.02498342654833,0.3177560890057609,-0.8765813740230733,2.1418745538635204,0,0,1762279114.6315231
-15.664417570960625,-1.6579994322596936,2.3404628577716746,-1.339048756640936,0,0,1762279114.6315231
-17.33024962405812,3.3700313188813986,-0.8477817247277796,0.8081315473087473,0,0,1762279114.6315231
-10.100114664158323,-0.9782171905463978,0.49960261050082055,-1.8351002501326374,0,0,1762279114.6315231
-1.3333732991165501,2.37376233375556,-0.7145889148469828,-1.0595296261650364,0,0,1762279114.6315231
14.03481975845785,-1.5647507255439395,-1.154455571588879,2.3758334156938847,0,0,1762279114.6315231
11.995242358590609,0.6954631638814959,-1.5088014242809837,1.8537791834364894,0,0,1762279114.6315231
15.522770833088257,-3.991669071300399,1.080677852397322,1.7089367973196294,0,0,1762279114.6315231
-42.974367674197865,1.2007694511589089,-0.20543410314301314,-5.89136571422294,0,0,1762279114.6315231
51.13080176699887,0.6129999316142553,1.409390272632323,-1.924696315577712,0,0,1762279114.6315231
-29.544056591569813,2.8719900475487745,-0.1435186080875287,4.488510354596964,0,0,1762279114.6315231
-22.31291774309334,-1.2147205945475374,1.9954523556402224,0.2778999803571738,0,0,1762279114.6315231
-21.341391405448814,-3.2792219129712303,1.1397984055972206,2.1819319959110195,0,0,1762279114.6315231
48.256264662716944,1.4855061509441314,-3.3229602153806255,-5.639267673700499,0,0,1762279114.6315231
32.8395090586641,1.9115048691823446,-1.0199684991371807,3.9247846160783553,0,0,1762279114.6315231
-19.90295563561573,-1.1534157174479562,1.0763397639043089,1.0523429704362475,0,0,1762279114.6315231
-67.58140958993496,3.1789989015196523,-0.561393163920461,-3.2766085365417896,0,0,1762279114.6315231
23.560245344715216,-2.704257198925804,0.8881595338418424,-0.5525068180227346,0,0,1762279114.6315231
111.28263474640447,-0.8954316837717078,-4.425905494941784,0.9603340669011329,0,0,1762279114.6315231
-78.61677150912526,-2.591297876613927,4.847191336862301,1.2440235026645674,0,0,1762279114.6315231
-56.48624379858475,1.5341395176447499,0.014289824314906741,-1.5414748867978714,0,0,1762279114.6315231
15.496482607038804,1.8770297821676,0.5346292060362621,1.8607830433174832,0,0,1762279114.6315231
15.755765965567248,2.3858630511295207,1.6727389066777383,-0.20106324265063186,0,0,1762279114.6315231
66.01921815284895,-1.0423558348771442,-1.8793485879660135,1.0059754307303956,0,0,1762279114.6315231
-56.38825327996369,-3.5958647063893783,-2.4003430025696177,-2.330577130331084,0,0,1762279114.6315231
-2.268244785781012,1.7895731640165573,0.6871318550402002,-1.1831254449833155,0,0,1762279114.6315231
33.23815644858036,1.7188192019816901,0.7049196067251787,0.3399756003118863,0,0,1762279114.6315231
1.0988477906529286,-3.277475572070516,-1.6589230372324282,2.6208347994467314,0,0,1762279114.6315231
-43.158073542950355,2.2092086049568485,2.1386266495293214,-0.09451666737771587,0,0,1762279114.6315231
-11.08463742900952,-2.0589984146773572,-1.452754189125923,-1.257520597925702,0,0,1762279114.6315231
45.84538134649863,0.6507815020623355,1.4664243919738744,1.1363554437761458,0,0,1762279114.6315231
-23.779638356260886,3.403855833296508,1.7899868589320753,-1.6757351344083384,0,0,1762279114.6315231
4.876992742106952,-0.9984861388962004,-1.1631382838582645,0.8786945208021203,0,0,1762279114.6315231
-13.261205673505598,-1.1105862342080945,-3.0694471788937845,-1.093015222214658,0,0,1762279114.6315231
20.57070278926504,-1.2596671249719458,1.0520365465579236,1.811896623783554,0,0,1762279114.6315231
-8.013622093060878,-0.687097504234833,0.020844209176525318,-2.642362566615135,0,0,1762279114.6315231
45.905342286946436,1.8766598245578403,2.6298425701307506,2.7149457631223664,0,0,1762279114.6315231
-33.19516531231917,-1.6462929077420798,-1.49421259248953,-1.5322296519532395,0,0,1762279114.6315231
-25.872539236994953,1.3630286157697846,-0.4548709264022967,1.0884615210967241,0,0,1762279114.6315231
18.49849917643317,1.43900196050064,0.6681646686822504,1.8924402691805926,0,0,1762279114.6315231
-29.359959486761568,-0.693288958813378,-0.2896141985562433,-3.942051055209771,0,0,1762279114.6315231
13.989343874098923,-0.7842731106456357,0.907342232943853,1.8866402302374476,0,0,1762279114.6315231
4.746071686004846,-2.189476149010032,-3.3333391652047957,-0.5785397743829406,0,0,1762279114.6315231
44.983230850214774,4.234365765183955,4.041360825696864,0.38690668798953337,0,0,1762279114.6315231
-21.337978728118035,0.19463513238142538,-2.5766959403067213,-0.9372335375678911,0,0,1762279114.6315231
-32.21161952140681,-4.087375462744231,0.029373257978777597,0.4951909276882003,0,0,1762279114.6315231
12.787284167247332,0.23029152139188738,-0.3173744184788794,-1.3617824626474786,0,0,1762279114.6315231
-17.901467257190195,0.3012204478144665,0.4520878164198347,2.4180595520531294,0,0,1762279114.6315231
52.36720150510035,2.016820408112247,1.872782892067404,1.2366483861049309,0,0,1762279114.6315231
0.42422820937042593,0.02233052037730004,0.8532732547283887,-2.720474523002977,0,0,1762279114.6315231
-66.90356194337438,0.04453019100224793,-1.0974256823709618,2.366704495638342,0,0,1762279114.6315231
5.5758546812765335,0.9374526430937412,-2.76485564995948,-2.6923820414693886,0,0,1762279114.6315231
79.76148743274555,-1.777343791971088,2.480342382488919,2.0103394796195704,0,0,1762279114.6315231
-50.022104642610074,-0.7297523998830335,-0.9203688890810062,-1.7335473257150427,0,0,1762279114.6315231
-45.972057723007474,-0.140578469996422,0.6849956644398032,-1.4097641013702154,0,0,1762279114.6315231
33.98564173375331,1.9935509247861103,-0.4014854637540307,2.253376555333534,0,0,1762279114.6315231
59.900467987616736,-2.5922856651107695,-2.417760200830065,2.7228772028325805,0,0,1762279114.6315231
-45.12615552815361,-0.30111436980496914,0.7987495956016712,-2.9140206956536483,0,0,1762279114.6315231
55.91795344473119,2.6471586255525468,1.0555848159875094,-0.975875357764031,0,0,1762279114.6315231
-104.57130450332012,0.00038177901116443884,3.6174431885232003,-0.38051864877383856,0,0,1762279114.6315231
8.50947700784604,1.5926667360652011,-0.6597381400752328,-0.18582958349516188,0,0,1762279114.6315231
22.380778054450456,-1.424224286854417,-1.3665123349471435,2.8152789568146592,0,0,1762279114.6315231
21.569829727120332,-3.0001942944163242,-3.308011834498982,1.9678952916262633,0,0,1762279114.6315231
7.999146183778758,2.7631458787894143,-0.007795950652362589,-1.58413247919656,0,0,1762279114.6315231
47.55716506706302,-0.3251719215688681,2.4430511176791434,-1.1648537423266616,0,0,1762279114.6315231
-44.36367925806771,-2.517137619739976,-1.0754242292212228,-1.353036717532504,0,0,1762279114.6315231
-71.18126776685693,1.3539835926694217,3.477542046162351,-1.439688964736647,0,0,1762279114.6315231
16.33138988362801,0.7618785039623662,-2.2280468412026724,0.3196318810834405,0,0,1762279114.6315231
-21.902347675230416,0.6325132370839088,-0.6547670782625904,1.0851181345857424,0,0,1762279114.6315231
174.54041730314097,1.4004318657134975,-2.086633770966044,2.7689806322683714,0,0,1762279114.6315231
-110.80901814503326,-3.5016558937526967,2.3877576661898607,-0.4195737332395098,0,0,1762279114.6315231
30.422772417682207,2.088294997559211,0.8802047091053031,-0.8709238238495091,0,0,1762279114.6315231
-81.87311616484405,-1.1096921764262935,0.8522906929182275,0.12144959124858495,0,0,1762279114.6315231
-2.0715694861262564,2.1768728875635377,-3.597609848189208,0.5434214296946364,0,0,1762279114.6315231
61.72859141464315,-1.9178564963473237,2.1669408040834863,-0.7212893400941432,0,0,1762279114.6315231
-15.359718449487636,0.1055215264441962,1.2811829218541486,-0.8685507106054831,0,0,1762279114.6315231
46.52714860158651,-1.9142732338075483,-0.7339067387029844,-1.225001171910337,0,0,1762279114.6315231
-33.08419896472283,2.1079008650843125,-3.775538714571096,1.2396171391470694,0,0,1762279114.6315231
-21.01020651482715,-1.228936267615609,2.649056924544073,-3.0218030864817673,0,0,1762279114.6315231
-5.305422823901828,1.8724203692042016,-0.17434701131904812,4.215155175924166,0,0,1762279114.6315231
10.923689005173932,0.04427843527243493,2.3997323795356937,1.0123154355737127,0,0,1762279114.6315231
40.71987586759454,1.7030547139665597,-2.50692348525947,1.133287224460963,0,0,1762279114.6315231
-71.55985214268024,-0.8286649819850141,-0.5018400756829869,-1.76808855278483,0,0,1762279114.6315231
20.175703694148073,-3.081445648378077,1.4096433279393161,-1.1875503303917654,0,0,1762279114.6315231
8.105660253577748,-0.7818330980531758,0.8458990641543604,-1.9470196285366304,0,0,1762279114.6315231
24.073784452505603,1.0529366774755422,-1.4795926464929063,1.150882999417037,0,0,1762279114.6315231
24.542861601166088,0.03752603017225385,-0.2612263372294662,-0.8048966910666326,0,0,1762279114.6315231
-29.20890931206587,1.6219409984566635,0.5004182369925597,1.9502056610368277,0,0,1762279114.6315231
-17.783059783023194,1.5723626187542916,0.4623672377337584,0.6222635586875591,0,0,1762279114.6315231
-23.29182959901497,-0.32443878172749446,-0.3715133581810159,0.6504353499145915,0,0,1762279114.6315231
1.0459733230878465,-1.5769853702929266,-1.3344792100475231,-1.110678027234999,0,0,1762279114.6315231
50.59503284652593,-0.3792892401632647,3.6536138755538428,-1.9908752657746576,0,0,1762279114.6315231
-8.305816457866705,-0.31914670863349626,-3.8187846501992064,0.030029272507309933,0,0,1762279114.6315231
-33.81997705645774,0.3605662342070177,1.39840221195815,2.038249263662088,0,0,1762279114.6315231
12.14297017535246,-1.8460352341841235,-0.7235623080266387,2.762266496592073,0,0,1762279114.6315231
21.019694024525105,1.5699937612324049,-0.37417765818328796,-2.457802312022268,0,0,1762279114.6315231
4.4868149571543805,0.12687109140129044,2.2938855864913705,-3.4581987366491895,0,0,1762279114.6315231
4.329178058697142,0.3648803631544223,-0.7652256274104816,1.6417547194341156,0,0,1762279114.6315231
-45.36726651525376,2.5177963787404205,2.3540778829822226,0.8787284200730349,0,0,1762279114.6315231
14.649267795126491,-0.17352185568043804,-4.801452939028796,0.163096610067875,0,0,1762279114.6315231
4.163333120797264,-2.716682954292722,1.5288170407558033,-0.8701429052734116,0,0,1762279114.6315231
0.05185651384114441,0.23303863890270735,0.5495163373417667,2.0835822059941473,0,0,1762279114.6315231
8.663906012132932,-2.0903796494558717,-1.8311606935178115,-0.9497695180667022,0,0,1762279114.6315231
13.612286285803018,-0.5942926492473861,4.222312631423043,1.3264209936598363,0,0,1762279114.6315231
-29.059904811838013,3.9438576303813613,-3.8294698543848376,-1.0396796410003293,0,0,1762279114.6315231
11.017278340023198,0.09051179019582666,1.9284973160927779,-1.656482243017881,0,0,1762279114.6315231
-28.755671147459356,-0.7505059515185971,1.4187345711100965,-1.4317564338016182,0,0,1762279114.6315231
55.109876351063235,-0.5718005038555263,-2.80327257308888,2.124201808052307,0,0,1762279114.6315231
-27.533361792072316,0.4093153749796501,-0.15357347723341683,1.5837182115064654,0,0,1762279114.6315231
34.15607460339012,-0.3491771423845426,0.28292986822966537,-2.025890436113983,0,0,1762279114.6315231
-42.961739812670245,0.3596072612812843,0.8864585240363733,2.403657304924162,0,0,1762279114.6315231
-20.098275838471306,-0.9539557846544403,0.5499382282350374,-1.687030429445558,0,0,1762279114.6315231
34.40317808388224,0.016306119143397236,-0.8265420208104577,1.4702797557779486,0,0,1762279114.6315231
-5.048031002414668,1.1177420666856772,1.490969699393252,-0.81013112055735,0,0,1762279114.6315231
12.141795011190021,-0.3764875209795565,-3.5050494834128925,-2.862140016333842,0,0,1762279114.6315231
-5.058027477879333,1.4185776403618606,1.6123713367101542,0.2277839140314418,0,0,1762279114.6315231
-2.8858850880965905,-2.487951016636665,3.179589729254482,2.1603933402714977,0,0,1762279114.6315231
-4.580266874282523,-0.6068254609703153,-2.100184008976611,1.628928974756554,0,0,1762279114.6315231
2.0871441448344275,1.7903041154805268,0.11552037963437026,0.6892776499084561,0,0,1762279114.6315231
-18.07872099234524,0.8504544867162092,-3.0518736838548985,-1.2589726444794105,0,0,1762279114.6315231
8.432973855753794,-2.517159245413457,0.03631666280426521,-3.160043689012396,0,0,1762279114.6315231
-28.983275571570225,-0.10014423568692633,1.8927432308634966,-1.4290350923192106,0,0,1762279114.6315231
83.3836519797589,3.6219887848850827,0.9823515468557288,0.7044438296452263,0,0,1762279114.6315231
-8.332563348900477,0.8611370542453095,0.2646393295107873,5.653935212859622,0,0,1762279114.6315231
-22.86874419934774,-1.4504079768517202,2.2180909388781993,0.026417584104560562,0,0,1762279114.6315231
-44.78510881653523,-6.548017315744948,-0.8142041425436016,-2.8458862992440763,0,0,1762279114.6315231
22.011329690114348,4.968147425007018,-2.898253203541723,3.082700314275979,0,0,1762279114.6315231
5.591433237019959,1.5626485848723406,-0.34177241986964335,-5.120180619229034,0,0,1762279114.6315231
17.68016419004028,-2.5370117618308097,-1.7973992301885644,0.741780744798459,0,0,1762279114.6315231
-54.090613472365405,1.4745390273670305,1.1556962943274012,-0.8600802484320683,0,0,1762279114.6315231
15.643664728666543,-1.9791426555773557,0.5218260585423512,-0.9679884482576171,0,0,1762279114.6315231
73.88670649211237,3.5503146090976925,2.7893264286061275,4.261192627696529,0,0,1762279114.6315231
-44.768933106886486,-2.157289377032664,0.8200286272182303,0.6608959972800357,0,0,1762279114.6315231
10.453000111851496,-0.4181927396745628,-2.411036645399656,-1.4828909020816472,0,0,1762279114.6315231
-23.806502075812727,1.639366907067358,0.9682508318320971,1.1728222228753744,0,0,1762279114.6315231
-8.055942241877954,0.460072663376846,-0.28325486738173516,-0.26480613458197927,0,0,1762279114.6315231
8.805205268603148,-3.831252480047224,-1.3145175363894486,-0.41974890416021954,0,0,1762279114.6315231
9.117886649020571,1.9106177316504351,-1.9985195628825585,-3.743978133275681,0,0,1762279114.6315231
1.8432058769513662,0.2302182308978878,1.8014898125638936,-0.4373490973092998,0,0,1762279114.6315231
21.28077650716938,1.4851011729527681,1.827701218595765,3.258913838327026,0,0,1762279114.6315231
-24.311992750823745,-0.9990571474853732,-0.0630308919979706,0.0762589634175874,0,0,1762279114.6315231
-32.163843624921874,-0.5450351408737263,-2.1437015139267435,4.002675069104123,0,0,1762279114.6315231
-6.443401040914354,-1.6363161946247446,2.6474699350627566,-3.433623923136352,0,0,1762279114.6315231
39.125090977359605,2.749620443864705,-0.8843212925961801,-0.9983071185783304,0,0,1762279114.6315231
74.53980260414076,-1.5229824642655214,-1.4253892183115517,-2.906004448713829,0,0,1762279114.6315231
-73.2157748836874,0.9126219198765889,0.43857658999715987,3.545668926269908,0,0,1762279114.6315231
1.744408289004565,2.081084442928712,0.059669125669794945,0.125404602703599,0,0,1762279114.6315231
-32.98487138321977,-3.7685377329055836,0.5772822459742936,1.4157858441969706,0,0,1762279114.6315231
2.998885290949572,0.372824219825675,-1.615963219731875,-2.4237569715717937,0,0,1762279114.6315231
14.898996697704995,1.5017330640413058,2.9562738030852658,0.08143631290015678,0,0,1762279114.6315231
22.25321873804616,0.1523067128160954,0.4241524309564273,0.2431946649453202,0,0,1762279114.6315231
19.26241458097231,1.1787249857416453,-3.1239958847037377,1.6115219837164658,0,0,1762279114.6315231
-26.516724069280645,-4.185791448914715,-1.8678999958413802,-1.695399437531256,0,0,1762279114.6315231
-37.43764924811556,3.1376664228792333,3.6307838388718388,0.2978841867666913,0,0,1762279114.6315231
37.45231207017748,-2.724478543669807,0.32507427100313924,-1.0225700715338393,0,0,1762279114.6315231
-2.6365375355797744,2.3507299578535132,0.19361845707173825,1.9384946355079524,0,0,1762279114.6315231
18.398149485464412,1.0411638220414186,-0.9322941505991567,-2.687452928418301,0,0,1762279114.6315231
-4.0908235490182525,-1.7713868566135245,-0.9169535728527928,2.768794146989623,0,0,1762279114.6315231
-21.809332614035153,0.7984626024463364,0.826205020226463,-0.8806259211978218,0,0,1762279114.6315231
-14.261352369356606,0.6627452232684099,0.18986723039291295,0.1461545733816931,0,0,1762279114.6315231
-0.6554194463000934,-2.112531296941059,-1.7953360749593334,-0.5744462525993131,0,0,1762279114.6315231
8.306076634742581,-0.6077330322625323,1.6751473062473345,2.5711751359182937,0,0,1762279114.6315231
42.97564136828159,2.8632181086066737,-0.8495969661003516,-2.0393555716391276,0,0,1762279114.6315231
-10.746800311561948,-2.364548119554884,1.045364402138021,1.3582441093876803,0,0,1762279114.6315231
-22.36671133089742,2.465852665743889,1.0341110452872795,-3.538204338906963,0,0,1762279114.6315231
-5.442760685273689,-1.3449370151879545,-3.1143379431700904,-0.8876133412113504,0,0,1762279114.6315231
13.11909904080446,-0.2642129686650287,0.645442695367689,2.7899396044151583,0,0,1762279114.6315231
-7.538773177019262,0.49675769937046715,3.6581392686708942,0.4654391301049225,0,0,1762279114.6315231
-44.673024527027344,-1.5449117877197485,-0.7261700384972466,0.5087403574023808,0,0,1762279114.6315231
45.164201888623666,2.7396773232836327,-1.1253696231768122,-0.4008052253848586,0,0,1762279114.6315231
68.64260664680558,-0.6558835021927215,-4.748405715015156,-0.42328998958238145,0,0,1762279114.6315231
-56.58495064790802,-0.4935879602755619,1.1892028823643637,1.5422832357474792,0,0,1762279114.6315231
-36.609816948871156,-1.7223252290421116,4.1909823029367175,-2.232002982373031,0,0,1762279114.6315231
-4.5782902392760665,-0.24956824671279032,0.5433468704007403,1.266857239033394,0,0,1762279114.6315231
40.58306295595051,0.9341775946117372,-0.30271039631470525,0.5831007631907527,0,0,1762279114.6315231
36.16384343242547,1.084453068234843,-2.084921804658487,-2.7244406816762883,0,0,1762279114.6315231
-61.80418598445411,1.805227861939195,-0.3795346116777927,-0.14131555528272238,0,0,1762279114.6315231
2.5005520228099716,2.40699875713791,-0.4660159471921618,1.573160856222934,0,0,1762279114.6315231
-2.5056364710719286,-5.794287211696941,-0.5637612240238351,-1.7070871445490794,0,0,1762279114.6315231
-6.811500190805753,-1.9895395884617733,2.9011525058358294,2.8730582255478807,0,0,1762279114.6315231
25.73560688157727,1.3449000600089773,1.3239345371079412,0.7550581494027822,0,0,1762279114.6315231
27.76739255572943,1.0416718461540464,-1.0334906068763823,-1.767969642363172,0,0,1762279114.6315231
1.2278857794254325,2.415065871422178,-0.9121143441607877,0.846527331638912,0,0,1762279114.6315231
-30.545703739426333,-1.3280967043787617,-2.954383951267893,-0.1556163837830746,0,0,1762279114.6315231
-23.437014219165754,0.054441865460979656,2.4782317910847014,-0.7476601402623982,0,0,1762279114.6315231
33.494305621124,0.972875696721564,-0.1717744386236425,-1.9358115339060395,0,0,1762279114.6315231
-19.696485069818593,0.8952699315054908,-1.3580600007939985,1.9785631029363004,0,0,1762279114.6315231
-8.033294895493237,-2.6852589578821187,0.30959089594238,-0.4532770330579724,0,0,1762279114.6315231
4.057686568865213,-1.3480574759596375,2.7612889952960393,0.10319476322460534,0,0,1762279114.6315231
4.61513403531958,0.38379561572378246,1.1734102873231314,2.453829567963431,0,0,1762279114.6315231
18.77480387472055,-0.18781407397004118,-2.4173457025399303,-5.163752901188514,0,0,1762279114.6315231
3.1737940775346494,3.111773822348763,-0.02448285327868565,3.048192063192431,0,0,1762279114.6315231
18.7679294269069,1.0219531878038006,0.3914241601507305,1.0809599519718927,0,0,1762279114.6315231
-53.761403721620766,-2.400568933287205,-2.4883811472325967,0.1215027235578927,0,0,1762279114.6315231
12.772923297233808,-1.5707632056766043,-0.4496971742132568,-0.37899184125216384,0,0,1762279114.6315231
5.309596839473898,2.307602762814858,2.6502320742584944,-0.4709423703796633,0,0,1762279114.6315231
16.778794757152927,-1.624433553584632,0.747372482532291,-1.299871335016725,0,0,1762279114.6315231
-34.66754503889675,0.23967861265593726,-0.9093309558054267,1.118882300284333,0,0,1762279114.6315231
19.49049232549754,2.020883050843861,-0.35823766854068856,-1.0371326712446054,0,0,1762279114.6315231
16.185317357772924,-0.7930347138951466,-0.7823341130115197,-1.032642222755937,0,0,1762279114.6315231
-14.605068734642456,-0.9547370001164334,3.5567508133544385,0.4773688203556126,0,0,1762279114.6315231
-24.015517084295972,-0.12741800169793882,-1.8104643837360002,4.3988969565933935,0,0,1762279114.6315231
16.40090641938547,-0.2941978779850379,-1.6447133406983032,-3.196873111394902,0,0,1762279114.6315231
52.3285959876316,1.417948930581382,-0.48711696307923474,1.2447826964189717,0,0,1762279114.6315231
-37.71248926167474,-1.5148898520179097,0.8003807989278151,-0.7872036493079144,0,0,1762279114.6315231
-14.44376036654227,0.6760198439715303,1.375646518288768,-1.2611723034122588,0,0,1762279114.6315231
-29.979229132913602,0.4120931501952622,-3.4822549738348556,0.36893258812649377,0,0,1762279114.6315231
39.84927027278162,-0.17290996902691647,4.4227560009401135,2.3516133117818696,0,0,1762279114.6315231
6.581986718454656,0.6363083323700939,-0.5524139215958375,0.32946916827022693,0,0,1762279114.6315231
6.360438482321477,-0.2753897714792166,0.15931035762075607,-3.0253262245990036,0,0,1762279114.6315231
-46.43137708608872,1.8198753348471872,-0.47743553362261754,-2.4458417394484577,0,0,1762279114.6315231
42.434660031063316,-3.2179961013488145,-2.83745372901347,-0.2610619909239186,0,0,1762279114.6315231
0.801768171002516,-1.8044951776387048,-0.6262985239615873,3.7872517617092543,0,0,1762279114.6315231
-1.0042972983317633,-0.4137070310260299,1.253290530070579,3.3656404733999303,0,0,1762279114.6315231
-11.561851468003097,8.742414911181962,6.70271327527798,2.088189294297071,0,0,1762279114.6315231
-2.0546817790709566,-8.708415262862465,-8.850758152532773,-5.743443922729404,0,0,1762279114.6315231
-10.829630527877606,2.509672191809017,3.6878568453970675,-1.1443876097332975,0,0,1762279114.6315231
-2.1791946022571502,3.9770072859535364,0.2509886928614135,-1.4890465161284523,0,0,1762279114.6315231
17.852309317068592,-2.277222829767781,0.6739110113205337,0.568270332315232,0,0,1762279114.6315231
-2.587220029683926,-1.5074303013875927,0.7892929653966902,4.331933268378596,0,0,1762279114.6315231
14.546460826500107,-0.9556782779818861,-3.2152910166529254,-3.3998152171614637,0,0,1762279114.6315231
-24.58604774368883,1.1921934710842779,0.48360977766082164,2.526361250807576,0,0,1762279114.6315231
1.102963001465141,-0.19350223017031287,0.23300649537198784,0.5218913092315632,0,0,1762279114.6315231
61.395546456121075,0.26691565281104923,-2.01040281145323,-2.19551296729251,0,0,1762279114.6315231
-73.20101562057192,-1.108458402798988,3.3736183430275797,-2.6706190582532954,0,0,1762279114.6315231
5.990155491473698,3.5851215470529385,-0.19929642211797252,4.429741435863001,0,0,1762279114.6315231
11.701200594905048,-2.6351386509619736,1.1801701549840733,0.36951597517243295,0,0,1762279114.6315231
-5.251375399629817,-0.46625353005487874,-0.5562274629319001,0.13712305881079176,0,0,1762279114.6315231
-3.206015975364107,1.8362670522466271,-1.7410928464893372,-4.006587356995185,0,0,1762279114.6315231
4.626916001898004,-0.05597573338461706,-0.812446414591814,1.7823239709443903,0,0,1762279114.6315231
49.80146921649881,-2.600862647357856,1.4540848031527178,0.7100886374452872,0,0,1762279114.6315231
-33.186760919242786,-0.6602638055547586,-0.7036636274243304,0.2171964028171859,0,0,1762279114.6315231
-21.299495745462963,2.013917607178154,1.206310793215637,-1.7735165473796402,0,0,1762279114.6315231
-11.893441056714435,3.179662065524583,-2.2768880743305147,1.0151041071903355,0,0,1762279114.6315231
30.652663747447107,-0.1048968419060126,2.2751899111570943,0.9353038610543356,0,0,1762279114.6315231
-2.416189457025063,-4.541054095161608,0.9232277796104759,-0.04875895475995317,0,0,1762279114.6315231
-7.134057802174235,-0.56462320561438,-1.1169706694341377,-0.919320000535642,0,0,1762279114.6315231
0.9336779175642211,1.2674585878534177,-1.366800245486026,-0.39960756742928677,0,0,1762279114.6315231
8.499845544440523,1.7317361784364496,0.22800267887902592,1.4464836812864506,0,0,1762279114.6315231
-47.38182124934676,0.635919190787577,1.3630256953721622,0.36012385408051506,0,0,1762279114.6315231
50.66860378046796,-1.5334740408027956,0.3215009941279362,-1.8122605995719931,0,0,1762279114.6315231
27.163980155128563,-0.9359123422217518,-3.8338132508093423,-0.29035068489211957,0,0,1762279114.6315231
-21.86489037611283,1.797984320707805,3.231783358663778,-0.5449928170877008,0,0,1762279114.6315231
-20.869115678264674,-0.8485264626482373,2.6990925336010116,1.5062799521294443,0,0,1762279114.6315231
-26.75153319968992,0.2526033523783517,-4.945544071207443,2.4284663631298677,0,0,1762279114.6315231
37.18127991790308,0.0018851017655670522,0.7131266198027542,-0.3154195907498981,0,0,1762279114.6315231
-21.814918065116732,0.8785392478005639,1.112670352761192,-2.1770806554929067,0,0,1762279114.6315231
19.514252950462108,-0.6328369013745537,1.1921879077646442,-0.9554302802775635,0,0,1762279114.6315231
5.615346578418606,-1.472158246044334,1.1498595150268882,-0.3865005384754537,0,0,1762279114.6315231
9.593954205944925,-0.1787266884516379,-2.3902759791766393,0.8940850188786953,0,0,1762279114.6315231
-24.26467173411782,1.3615548349305184,-0.8304741315614981,-1.7192612244886323,0,0,1762279114.6315231
-8.584408704158417,0.6912692600065248,-1.1211468533165034,1.0017968093791108,0,0,1762279114.6315231
12.408642675661055,-0.8328454142242669,0.796761575719855,3.4115463321826964,0,0,1762279114.6315231
29.79394068152741,0.3332104421424446,1.004802861392575,1.0780573645255211,0,0,1762279114.6315231
-26.918971728919583,-0.5956034319858236,1.9974413800538438,-1.5896881060158912,0,0,1762279114.6315231
-27.942777525159688,2.1606716986783563,0.27532524238292566,-1.2865130462208234,0,0,1762279114.6315231
22.679964361237364,-3.356842693486494,-3.6016978917383846,-2.1201129843662816,0,0,1762279114.6315231
19.769940159412478,0.8801459126681446,2.6437414004486834,1.2162446322713418,0,0,1762279114.6315231
-7.394409629746127,0.9442416343377249,-2.0994622777831937,-1.1138267730744302,0,0,1762279114.6315231
-20.570615077787053,0.2153659518239828,1.696458176368573,-0.36533645535342374,0,0,1762279114.6315231
11.913050414342887,0.6997906220136825,-1.2142185724619552,2.04567322446036,0,0,1762279114.6315231
14.917969225663338,-1.50589951252247,1.2229480326718107,2.3536952872886614,0,0,1762279114.6315231
-25.627300165654535,-0.10892478134623808,-1.7224402358035804,-2.5584518322341623,0,0,1762279114.6315231
-9.391781021747763,0.057488767184079026,0.557732109783321,0.631512581748608,0,0,1762279114.6315231
26.378251220012018,-1.0967909779163143,-0.7628381939049996,1.4842758127183675,0,0,1762279114.6315231
39.65268016960349,1.6182340461436424,2.2042030314742216,-1.938364464537568,0,0,1762279114.6315231
-54.40637147236901,-0.7222807713989665,1.3248799728818588,-2.070530519146634,0,0,1762279114.6315231
-9.45904046124223,1.8857066431651215,-1.3243838332693094,1.8686711916032541,0,0,1762279114.6315231
12.081110045328769,-1.2228005295046953,-0.6093651228224259,-1.5136824184941464,0,0,1762279114.6315231
4.241247403209755,1.5887118508451636,-4.017387870876822,4.602147887134949,0,0,1762279114.6315231
21.758469796035293,-0.6058727468063823,1.8203004840942751,-2.778984451729604,0,0,1762279114.6315231
-44.24763141770298,-2.0540364351384457,1.5390152115131994,-0.9663007388522843,0,0,1762279114.6315231
42.31724439766776,-0.5711809829380928,3.557699328428377,0.6725945271659207,0,0,1762279114.6315231
-7.304975735986995,-0.11281598048986326,-0.30242076492776265,0.07108227886475961,0,0,1762279114.6315231
3.3202977716361834,-0.024940180446421965,-0.20723028837780547,0.27465298236846525,0,1,1762279125.664036
-34.79553356771411,4.189777506050537,3.818264174950569,5.705747814121069,0,1,1762279125.664036
29.273871899219152,-0.5278115904140374,-1.7875594614700192,2.306267010777541,0,1,1762279125.664036
-56.55778597052282,2.190397386490494,2.4229148814922197,1.2523708987661755,0,1,1762279125.664036
-1.0246939548518708,1.3689568489406643,-0.551746787899879,0.4453765779614709,0,1,1762279125.664036
35.142719402262266,-4.087856128381508,-0.5443472441076679,-6.473182102056326,0,1,1762279125.664036
33.689853656570044,1.4242573900512498,-2.919625088250654,2.028547998162973,0,1,1762279125.664036
-36.217311402659,-3.70490520135514,0.7590958985204149,-0.6182660927618158,0,1,1762279125.664036
4.750187633187988,2.06519109771626,0.15037389465422263,-1.2263030108609747,0,1,1762279125.664036
-10.099342268062504,0.805246430609482,3.964201673676251,2.2347334391328126,0,1,1762279125.664036
-3.7497264914078956,1.7224042354917488,-1.901513434396815,0.7503598117821273,0,1,1762279125.664036
17.42957443030618,-2.7129503483332287,-1.8672000172022027,-1.4109336098780685,0,1,1762279125.664036
23.538368823849115,-0.6716112139125641,-1.2124064914277182,2.5625014675543207,0,1,1762279125.664036
-46.76874617661648,2.1289929458743675,4.134547400943666,-2.705621627075798,0,1,1762279125.664036
22.451531283486872,0.3270813210436852,-2.2395418293060683,2.127265959566245,0,1,1762279125.664036
-5.7719460735582455,0.0015687994434178025,0.8503742387263904,-0.7653851529776426,0,1,1762279125.664036
-16.884129897451,0.1332806578059721,-0.2620157679264234,-1.4969886367116638,0,1,1762279125.664036
37.08411514591966,-3.08704839511802,-0.17535074188416153,-1.095677189761578,0,1,1762279125.664036
-39.31472064966343,3.0169357569410336,1.3430259004853256,0.9870111530235082,0,1,1762279125.664036
34.31489027153755,-0.3754495159012806,-3.7520383658392764,1.8691745829105304,0,1,1762279125.664036
3.950790562030853,-0.6854182081387205,1.5563931089614762,0.3948068698226751,0,1,1762279125.664036
-38.98120294705702,-0.6009231267032737,0.3636383827502981,-0.1550212074816613,0,1,1762279125.664036
-11.574918305653519,0.47655086344583925,0.5876299371574402,-0.6882246862526452,0,1,1762279125.664036
46.27101128739134,0.05755267582918399,0.5126804472403678,-0.7789125528393279,0,1,1762279125.664036
18.54099256313909,0.9553454710027682,-0.2021456364242034,-0.7141461539645194,0,1,1762279125.664036
-31.30993770688737,-0.7042765940982875,0.04362344525053599,1.3739895946764458,0,1,1762279125.664036
-4.657461470555409,-0.024669963579095934,0.7321563582049496,-1.6690742973581487,0,1,1762279125.664036
-19.734525654276084,-1.2274322527082866,-3.519912158185955,1.1897701649112098,0,1,1762279125.664036
46.87371165725562,2.8039995783463523,3.2432896576087633,0.7749975540106174,0,1,1762279125.664036
-9.195564294657876,-1.7597811698698824,-1.36380690117925,-1.0726797715625338,0,1,1762279125.664036
-36.6536344934387,1.767582308608273,0.7835135596488526,0.7981671329442768,0,1,1762279125.664036
-31.733917449869754,-1.2088345067501827,-1.5667454466751742,2.4441703437317037,0,1,1762279125.664036
90.3892268396903,-3.2431382459195697,-0.4494445443159502,-2.393939973748259,0,1,1762279125.664036
-17.915404999344723,1.821629156145894,2.1154127581896147,-2.1404708678957354,0,1,1762279125.664036
-15.348785718745496,2.3523154225265723,3.1151228156918225,1.7833653265366762,0,1,1762279125.664036
-10.388851798128389,-1.5567667927884974,-5.1726616664911536,0.6762163021671552,0,1,1762279125.664036
16.36490827395137,0.8464146560997403,0.2904320047963287,-0.48121840716914177,0,1,1762279125.664036
-17.624338046465496,0.5232780770070393,1.9078819211451168,-2.7552772614488625,0,1,1762279125.664036
18.254511427617025,-0.8934368538738869,-0.5326178148174056,0.3840241118506464,0,1,1762279125.664036
-32.932859120991615,-0.5145349000851863,0.12442851874819218,1.3024057625533996,0,1,1762279125.664036
18.478152737786903,-0.984530051352698,0.20260047178117954,3.9363802262382634,0,1,1762279125.664036
37.59350694067668,1.1999270875076724,-1.3609115798504774,0.43238792703765294,0,1,1762279125.664036
-53.222253302088035,1.4732601370473521,0.8792290829401002,-0.3686909006482244,0,1,1762279125.664036
25.674300163189606,-1.974609434555697,-0.8329076367849385,-6.563726406139547,0,1,1762279125.664036
-19.954297028177976,-0.8083050653687727,1.0061250577259013,1.5118272459021527,0,1,1762279125.664036
30.194184960739175,2.009323894406406,1.9337919995103452,0.4266426092082563,0,1,1762279125.664036
-31.858671689129594,1.3371418789716243,-1.5838859893398336,2.2851494620728623,0,1,1762279125.664036
17.97131984379295,-4.261778461624465,-2.373350712945283,-1.258603652527054,0,1,1762279125.664036
31.609865500842062,2.3764745481680816,0.223461437175994,0.5447832558436174,0,1,1762279125.664036
-9.379380441747301,1.710803644169881,1.6360180144045908,-0.06124646933347807,0,1,1762279125.664036
-73.81262527370572,-1.3466757724213976,1.51963307182536,2.9719396838113634,0,1,1762279125.664036
23.47737456714308,-2.42040222280476,-0.3788943810101456,-3.458547818744464,0,1,1762279125.664036
15.341485541753954,2.9205927884846314,-1.082332769353867,-1.0258584319715687,0,1,1762279125.664036
40.79388020856382,-1.2613333998920337,1.2346970413964047,1.634576542034752,0,1,1762279125.664036
3.538483800852258,0.6401562909859614,-3.2008716181737165,-0.9808932419806512,0,1,1762279125.664036
-41.563683600221935,-1.2967110806535294,0.7251169152687379,-0.1249038748522447,0,1,1762279125.664036
16.44857086891842,1.01837763227652,0.08171930719663599,3.1142166483093576,0,1,1762279125.664036
-28.279776539976268,1.6434048955641238,2.50599946591518,-1.9103993132181496,0,1,1762279125.664036
5.238956020600212,-1.5949180928934157,0.03852965394569893,0.27536466145026267,0,1,1762279125.664036
11.403077864236705,-2.573757059099554,-0.6112365343590556,-1.4227455639369428,0,1,1762279125.664036
40.51477715427956,2.4939088425753773,-1.8216823108875726,3.039505460127603,0,1,1762279125.664036
-62.82734114336258,1.873103983874595,1.2522371199211215,-5.213780751696245,0,1,1762279125.664036
29.108895425631445,-1.77522165219652,-1.3692804022367084,2.201837026805636,0,1,1762279125.664036
-11.507357279645493,1.0982648191053896,0.1934667820447292,0.21084408879486324,0,1,1762279125.664036
13.0565964520076,-2.542405053633715,2.042558705067222,2.186092410245873,0,1,1762279125.664036
-13.42014002835241,0.7798444309182827,-3.272701210845946,0.7432297056403494,0,1,1762279125.664036
-16.52557221807867,0.4519337524743782,3.0475598378630715,-0.38133403096256635,0,1,1762279125.664036
101.74983033098297,-0.5381807567201898,2.5903693864434305,-4.9829605951242355,0,1,1762279125.664036
-67.92536672920737,1.0045683371848424,-3.882888853370701,1.6336183175870473,0,1,1762279125.664036
-34.17496101194345,-1.6275183378405271,0.09360354917375116,3.236130257552817,0,1,1762279125.664036
-23.216428868571846,3.357025869542985,-0.6497456318307206,-3.363405358882179,0,1,1762279125.664036
32.773028507255766,-0.39000780191845397,0.9858249989087605,1.5058733732098952,0,1,1762279125.664036
50.01442010378723,-0.8459891568074557,-0.49535193848589937,1.7300354854321935,0,1,1762279125.664036
-8.395915638891676,-3.051784253262368,-2.330438912246235,-0.8838031101783098,0,1,1762279125.664036
-36.54215628174496,1.5457468998463784,4.634186463013588,-0.17538563907776997,0,1,1762279125.664036
4.0425763209122785,-0.4956024520094251,-0.6105180549539941,-2.4248227078999904,0,1,1762279125.664036
9.05941155866015,0.5810954936501406,-0.5422575837875331,1.6762657382662727,0,1,1762279125.664036
-9.932569300124477,0.11719430347056245,-3.018519120866181,-0.966319433963222,0,1,1762279125.664036
6.451019187194033,2.245377451865281,3.156469569988735,1.249881410939159,0,1,1762279125.664036
-0.8380899904376008,-0.039484033023425846,1.2697832038594246,1.4306110671595762,0,1,1762279125.664036
-0.07138737617288012,-1.7373813895624584,-0.15698857376525402,-1.6454456495421141,0,1,1762279125.664036
33.18829743280082,1.0897961992331857,-3.906212099792509,3.212110186238943,0,1,1762279125.664036
-18.872723736682016,-1.4803572826732916,0.18982915516894913,-4.741700172565773,0,1,1762279125.664036
-46.60388991830483,-2.771828458438724,-0.35585264442956105,-1.099830205047502,0,1,1762279125.664036
11.974273435729325,3.0471856869701788,1.9190830790561393,4.738555246567378,0,1,1762279125.664036
-10.26147458594061,0.04797946665076123,2.402235954408788,-3.9718523862196036,0,1,1762279125.664036
93.39250252420184,1.8574616722304036,-0.033977784895463985,0.8363884643847423,0,1,1762279125.664036
-53.23886487789919,-2.5652852375013913,-2.6460526204067345,1.3677166342567095,0,1,1762279125.664036
26.176628885498285,-0.06761596732519547,-0.023665489035275437,2.9420891519337933,0,1,1762279125.664036
-42.22003418223931,1.7490956098623147,-1.7685139072805596,-2.659274628303107,0,1,1762279125.664036
-30.30914242406006,0.92074700131387,2.0337143545730925,-0.15775709216772477,0,1,1762279125.664036
16.784056626280954,-3.283709629591751,2.1279888046902333,-1.8056521885321797,0,1,1762279125.664036
-9.779231331118188,2.098636082103766,1.731407586864309,0.997608855374872,0,1,1762279125.664036
23.968127174644845,-0.37706075172683323,-4.918244450131593,0.5145161279625629,0,1,1762279125.664036
86.45235453277581,-0.9867362584541638,0.7625677319000822,-1.1000929509779918,0,1,1762279125.664036
-49.193770302230426,-0.7305876794632221,-2.500239976144559,2.2175016980935274,0,1,1762279125.664036
-32.61290891211386,0.880382497686348,0.9448247504327688,-0.9408174759916496,0,1,1762279125.664036
-17.530655226107893,1.0067727939287614,3.6826950191185026,-0.972354403210166,0,1,1762279125.664036
-15.419430823367817,0.5421696325898843,-0.589095071659124,-0.5515390129673855,0,1,1762279125.664036
44.37999696574613,0.5199462770722303,2.1465075981444843,1.4333114434511067,0,1,1762279125.664036
10.408665094740124,-1.0266846330377886,-4.235661503599699,1.2565096955665243,0,1,1762279125.664036
-42.71674755067455,-1.8247980787898637,0.6034679917292499,-0.33383117679487273,0,1,1762279125.664036
-5.078332806181928,-0.06901876652841733,-0.2407259126581905,-1.4229125314405326,0,1,1762279125.664036
42.54528327967062,1.5612956326735787,1.0184571802483446,1.4439410001986057,0,1,1762279125.664036
-6.587036529808283,0.9119977612439363,-1.009335634482156,-2.093113539042201,0,1,1762279125.664036
20.940652051595613,-1.8032751173683454,1.4861851771313832,-0.8681996420730054,0,1,1762279125.664036
35.693190730348924,2.0673346214990964,0.48962169619700824,3.105146942364116,0,1,1762279125.664036
-95.43668601999019,-1.0738713850644834,-1.79903504593196,-2.2220899956871007,0,1,1762279125.664036
-10.4172350356235,-1.9396167463844423,-1.0863995363858114,1.9994210731263091,0,1,1762279125.664036
24.916134056041898,1.7988063150685016,0.9505344360886578,-1.318211669538097,0,1,1762279125.664036
3.8044406291584068,0.040237029297638775,0.41341412496361424,-0.27133651571308376,0,1,1762279125.664036
32.75129772058357,0.39393757186787065,2.5448033512263284,1.2126831454954008,0,1,1762279125.664036
4.960143285989038,-0.2851836617130225,-1.7944446594273096,-0.27234689041737525,0,1,1762279125.664036
-41.4276922861394,-1.7072796973170066,-0.2864609216473265,-1.6170678028022976,0,1,1762279125.664036
37.44722884950533,1.5902128558273922,-0.7419722166004278,1.947793835125812,0,1,1762279125.664036
-5.032827834485353,0.3233133244279004,-0.40497431002259876,0.1055710692549191,0,1,1762279125.664036
-48.35296949371325,1.411861070015853,1.5956686255601584,-0.12425259719541609,0,1,1762279125.664036
28.601629998235477,-1.5537029628663706,-2.2820999702149765,-1.6518097632006807,0,1,1762279125.664036
11.110359446734842,-0.781419878353414,2.8579280246746563,1.6178893396529754,0,1,1762279125.664036
15.749551546737505,-1.0602799431690562,-0.661051356871587,-1.3562984734334025,0,1,1762279125.664036
-20.29949711428228,1.0600797475383408,-1.2299088669149645,0.7175330894508131,0,1,1762279125.664036
-39.2009119845393,-0.923221998291041,3.0705197715894696,-2.0285497642163013,0,1,1762279125.664036
19.244227558616974,2.080607475817647,-4.75861648684388,2.5382077418533058,0,1,1762279125.664036
68.08146056856735,-0.6374491478405455,3.140763492442546,-0.06405951785567321,0,1,1762279125.664036
-33.21425784927762,1.9135616719013508,-0.8017947073291953,1.1212216967949238,0,1,1762279125.664036
-36.70082253305954,-0.675252726516671,-1.5783617390154692,-1.5173802051722949,0,1,1762279125.664036
-8.738602522090591,-2.1111073336129023,1.064225141751604,0.7633967162497459,0,1,1762279125.664036
30.395554642430703,-0.5255122595374891,0.5686689082361739,-0.9549809018657833,0,1,1762279125.664036
23.119522426052008,1.374900313832153,1.1598243657741376,-2.2306288998118537,0,1,1762279125.664036
-24.76359969809485,-0.3361690175357407,0.5776035334091256,2.321474768057992,0,1,1762279125.664036
-15.314152414979644,0.6421478369457705,-1.053978253011301,0.5083644671588442,0,1,1762279125.664036
35.64424247142918,0.05674379821868052,-2.036285941457628,-0.2010007908872171,0,1,1762279125.664036
-14.827209238863073,-0.9922939339372093,1.816152882620235,0.8695894984641541,0,1,1762279125.664036
-28.192795656658994,-0.2400097394145355,0.7461045184729272,-0.6138393563410828,0,1,1762279125.664036
-2.8343718227632855,2.292796696857087,-3.6532286673931362,-2.0772735297808884,0,1,1762279125.664036
38.73695483135526,-1.492541657179127,-0.21672982931608709,-0.10320095839889765,0,1,1762279125.664036
17.2009319672689,0.06531844208312469,1.9629962154330338,2.44822072188716,0,1,1762279125.664036
-36.374335886641866,-1.3458160989860026,2.513825523420256,-1.5785661451897783,0,1,1762279125.664036
13.382162308722027,1.4292759289309382,0.5870109813172519,2.897038803231299,0,1,1762279125.664036
-20.694910395785612,-0.5419515380329346,-2.587108189981905,-0.08369135885636961,0,1,1762279125.664036
24.327539462058265,3.0271132328345587,1.8891903423887395,-1.2743132868036218,0,1,1762279125.664036
-28.921043022949423,-0.9507786615851036,-3.0692612496022273,-1.309521363953786,0,1,1762279125.664036
-6.815740826490084,-2.5318779410422074,0.4886003213228157,-0.6925325562179898,0,1,1762279125.664036
32.19065343086899,-2.60992575797812,-0.5877258304449025,-2.986383521128471,0,1,1762279125.664036
18.12612365824274,2.4356742774701656,0.9974112692820327,3.793767817555424,0,1,1762279125.664036
-3.7852375275369985,1.7171164187161159,1.2044553117824202,1.3943618214710507,0,1,1762279125.664036
-41.45496052712973,0.25405414233274587,2.0969573709297444,0.9452127670756061,0,1,1762279125.664036
18.707295724651495,-0.297473921881844,-3.2970461782520526,0.8892875840826625,0,1,1762279125.664036
3.1236159270886628,0.5574651490865765,-0.5437538876402609,-2.6057493697700993,0,1,1762279125.664036
-13.92178808846647,-0.4086548632142228,-2.138627704046297,-2.659547233435976,0,1,1762279125.664036
-6.410563526407782,-0.30244156866161553,4.200746197718911,3.6050718727826205,0,1,1762279125.664036
28.410275169886077,-3.3432551035314804,0.09446371492556051,-0.552875836397968,0,1,1762279125.664036
-3.406293554574286,3.1487748220487104,-0.7230533480200902,-2.5513943697124835,0,1,1762279125.664036
27.637514944786304,-1.8746744247080729,-0.494514985055183,2.995012106360022,0,1,1762279125.664036
-66.88452341080206,2.67502318574809,0.5644465109690963,-2.4008004092396384,0,1,1762279125.664036
35.71736424134572,0.385820841714327,-0.2893857980706943,1.2106375103314224,0,1,1762279125.664036
5.3257505137133485,-0.5074716726363476,1.5154398353799456,0.5665259985933675,0,1,1762279125.664036
-27.357984726264135,-0.26963464711329266,-4.6531158985144,0.39076215772007455,0,1,1762279125.664036
-0.038826915069597845,-2.930302777157031,2.207628781292285,-0.6288362061566484,0,1,1762279125.664036
48.766612394679534,0.042938710910019225,-0.04905144942747084,-2.0395536016015514,0,1,1762279125.664036
-29.360351351775527,2.0937725963783143,0.5692092037824162,3.76266537487601,0,1,1762279125.664036
20.087361334889163,1.7158462390582052,0.48700581008898913,-0.9196482781199579,0,1,1762279125.664036
-30.519472416056068,-0.2346040714484447,2.367574544777353,-0.7954428260161915,0,1,1762279125.664036
-16.367946181886,0.5550762954140264,-2.1950273268044764,-1.0297207819926604,0,1,1762279125.664036
13.342862482632047,-2.786805679568037,-0.010716373172737777,2.0926204714032903,0,1,1762279125.664036
24.701542695502585,-0.8384499980478389,-2.4082785245964256,-2.0740235085506,0,1,1762279125.664036
0.38700220875899194,2.9969927794513485,2.733345714337841,-0.9214543194903253,0,1,1762279125.664036
22.580373009793487,-2.4737726125568655,-3.29992743298565,0.5605672677437455,0,1,1762279125.664036
-58.84545696894997,-0.11772588390688977,2.7561909339476593,0.9290152897671652,0,1,1762279125.664036
7.310956532281648,-0.30386540538755363,-2.546337422283082,2.0162993722079117,0,1,1762279125.664036
-5.828509559191157,2.2237199352696617,6.344355344880606,0.025125111106005182,0,1,1762279125.664036
25.295178445946682,2.2805322575496896,-0.8563625666854995,-0.3794098482203667,0,1,1762279125.664036
22.49496486098547,-0.33901616959352654,-4.283792901400619,-1.4434146984224276,0,1,1762279125.664036
1.5650690151497124,-4.053687668940832,-0.5683387731652981,-1.4341896161625998,0,1,1762279125.664036
-23.80018414666403,-0.6554150978163449,-1.798314589050566,-0.3771419900686345,0,1,1762279125.664036
-28.930966035013657,1.293909569025315,4.08878247663337,-0.40750739059169155,0,1,1762279125.664036
-2.358640607010813,0.9629899752931506,0.07011414212845005,4.446348173098197,0,1,1762279125.664036
47.50052485869712,0.5281063176915415,1.6497126501592727,-0.057113617073490996,0,1,1762279125.664036
-11.582394432516624,1.5110407122393983,-3.1793375601542633,0.19999191830470106,0,1,1762279125.664036
-44.27473839431004,-3.0313904342869873,-0.05827306004856316,-4.07674942375323,0,1,1762279125.664036
45.152314060263926,2.044631976879061,0.7455698808730834,1.0762118874391655,0,1,1762279125.664036
29.507424450124425,-3.285798665869997,1.3029117996487645,-3.2578611613469963,0,1,1762279125.664036
-12.232647079729006,0.34851239339663864,-0.378581662262018,5.777307248145094,0,1,1762279125.664036
-39.26958734880311,1.0003437904745873,0.15014561331454745,-1.1141425938314018,0,1,1762279125.664036
-3.4599071645126114,2.3803036877640715,-2.7169571481584334,0.2228588228722731,0,1,1762279125.664036
-19.68331748612129,-0.380923695348072,0.8880494968332044,-0.5688794483408764,0,1,1762279125.664036
41.57060239975471,0.048592400939575675,-0.3093051496522049,0.40587677429087426,0,1,1762279125.664036
-1.329313465894228,-1.0985950829702296,1.4405623197819566,0.25552080524888626,0,1,1762279125.664036
-10.614068379961331,-0.1572347592229658,0.5939500510919655,-3.0938314480468905,0,1,1762279125.664036
38.50923700066676,0.9994562377642813,0.7508850311507874,1.2530641135575753,0,1,1762279125.664036
-5.523222275943933,-4.772216382019515,-3.2228525431271433,-0.5269213383672845,0,1,1762279125.664036
-35.23435046241444,2.7205720098908586,1.334166329936602,3.4264570111373525,0,1,1762279125.664036
-4.177529870784235,1.5260994804555879,1.8751541899555826,-2.463023623649561,0,1,1762279125.664036
-16.511087042291116,0.7391810056717164,-0.28134512577349063,-0.4984532812633647,0,1,1762279125.664036
40.29174235617756,-0.7836637767980406,-1.649201312105826,1.6971345832246778,0,1,1762279125.664036
-0.1268162063487429,0.7601497564004168,-2.0497324068109544,0.6628396161316829,0,1,1762279125.664036
-23.52547496192261,-0.7921713469483028,4.658900626973165,-1.3602272791947534,0,1,1762279125.664036
9.568373300092095,-2.606768605939772,-3.395652510699448,-0.9868386660326913,0,1,1762279125.664036
12.221791324874602,1.8298070748973798,-0.4563079130741184,-0.7861470909665945,0,1,1762279125.664036
-2.5737871107991057,1.7540187940704925,0.4684221952175616,1.44281663649349,0,1,1762279125.664036
-2.3052973431300052,-0.6580813438619078,1.4053500304342477,2.105477540093172,0,1,1762279125.664036
-3.3171751132749465,-4.678267151557755,3.442375366013346,-1.3375154416816655,0,1,1762279125.664036
28.371034463790927,5.272462124446471,-2.8123066337258846,0.5564373961008511,0,1,1762279125.664036
-44.845723106199976,0.6772283475419426,-1.8923969310062245,-3.3597064791832563,0,1,1762279125.664036
-10.42408197655703,0.5298377714291381,-0.2242466107602139,1.4136238934126393,0,1,1762279125.664036
1.936084670759423,-3.4832069270982298,-0.8023300179209715,0.4442871303578871,0,1,1762279125.664036
41.80245263681597,-1.4235685043543191,3.5373995632763644,-0.7062958152102545,0,1,1762279125.664036
17.664596132587363,2.2066597412194042,-1.2234658697136702,2.5533610659001877,0,1,1762279125.664036
-43.64564261496384,-0.519076246085683,0.42304396642802755,0.7058060791960218,0,1,1762279125.664036
-29.902047712309848,-1.6168609835122925,-1.6902462650435008,-0.6757431773082209,0,1,1762279125.664036
53.05558914145639,3.8091805900445688,0.5087286013974193,-2.626637588833111,0,1,1762279125.664036
20.745346127541122,1.4218964575967006,2.4815425716925468,0.8773952722431247,0,1,1762279125.664036
-25.13457149365496,-2.8381859801157465,-1.5146262534506043,-1.4401362834614782,0,1,1762279125.664036
-11.356361400024962,-1.2756590761373374,-2.7322221293952818,0.08309509932534963,0,1,1762279125.664036
-52.12441640098676,3.9982547737893017,1.5888501012601666,2.5413678299031797,0,1,1762279125.664036
61.94385389365436,-3.537169094444726,1.3598986985696184,0.3008645704178408,0,1,1762279125.664036
-18.972125172632,-0.9695787783104696,-2.4347352132915097,-2.4730034328371144,0,1,1762279125.664036
24.17107883284171,-1.037739137178327,4.422529632162654,1.1123024883674129,0,1,1762279125.664036
4.956332637493176,1.6904541823971428,-3.8151819380339673,3.4977835373256205,0,1,1762279125.664036
-19.522293871780526,2.961833894416769,2.278431749603871,-4.3067303157793875,0,1,1762279125.664036
