ch1,ch2,ch3,ch4,label,trial,timestamp
107.78952657291666,12.150934956036508,5.256429387722164,12.003208907786757,0,0,1761679172.52289
85.19305104063824,13.317783742211759,6.2587225758470595,12.638991900254041,0,0,1761679172.52289
56.94932657526806,13.063470545224845,3.8764063040725887,13.304694092366844,0,0,1761679172.52289
3.2406233116053045,11.29449786618352,9.310480939690024,14.68845707597211,0,0,1761679172.52289
103.00619452958927,13.074690245091915,13.645024988334626,13.637545188423246,0,0,1761679172.52289
152.9749978375621,10.557737574912608,8.764455546159297,13.04664099542424,0,0,1761679172.52289
102.83041923167184,15.430827217176557,9.179584441240877,14.651058076415211,0,0,1761679172.52289
106.73113488545641,11.511412063613534,6.24002307606861,11.999469007831067,0,0,1761679172.52289
-8.26330895209685,10.553997674956918,6.924424767959863,13.218676393385977,0,0,1761679172.52289
-15.174644070211798,9.465686787851155,8.394205450545996,10.847579821478575,0,0,1761679172.52289
113.38441690662876,9.536744887009263,7.769642157945782,8.540061548817903,0,0,1761679172.52289
259.8052400718443,10.972866469994187,11.569380512926728,12.130365506280214,0,0,1761679172.52289
76.64363974193111,16.339622906409204,7.9080184563063085,18.061846836004406,0,0,1761679172.52289
-112.68505561491475,13.145748344250023,6.101646777708083,14.370565579738468,0,0,1761679172.52289
18.37225853232667,11.025225069373846,11.135552118066698,10.193097329232842,0,0,1761679172.52289
62.31234311172739,14.810003824532032,9.194544041063637,16.031081160064787,0,0,1761679172.52289
125.13892246736214,15.67018081434071,8.289488251786679,11.801254310179502,0,0,1761679172.52289
171.74555571516976,9.955613682046533,2.055075025651604,12.130365506280214,0,0,1761679172.52289
-18.26006153365597,12.536144651472569,10.065940730739385,17.025894548278302,0,0,1761679172.52289
64.3805077872239,12.236952655017376,5.791235081385821,14.912851073313504,0,0,1761679172.52289
69.1600999305956,9.473166587762535,8.700877246912569,17.631758341100067,0,0,1761679172.52289
165.84399358509108,14.357475929893553,9.43389763822779,17.44476334331557,0,0,1761679172.52289
39.65602918015793,13.732912637293339,6.483116573188454,15.679530564229935,0,0,1761679172.52289
93.89579823752865,9.847156583331525,8.454043849837035,14.897891473490745,0,0,1761679172.52289
27.62103112274781,10.0790303805843,5.675298182759434,9.47129663778469,0,0,1761679172.52289
48.661708273459226,13.515998439863324,9.0599076426588,11.05327431904152,0,0,1761679172.52289
91.30778746819124,5.938961129635572,8.64851864753291,10.903678320813924,0,0,1761679172.52289
77.61601373041049,8.691527497023344,5.44716428546235,9.02998844301328,0,0,1761679172.52289
67.59682174911723,16.773451301269233,11.000915719661862,11.382385515142232,0,0,1761679172.52289
72.7204846884124,11.945240458473563,4.471050397027284,17.11191224725917,0,0,1761679172.52289
214.83668300462887,14.196660231798887,6.168964976910502,14.6921969759278,0,0,1761679172.52289
-103.8439321196638,12.46882645227015,10.024801831226796,7.885579056572169,0,0,1761679172.52289
37.838437801692635,11.051404369063675,4.317714498843998,11.760115410666913,0,0,1761679172.52289
109.96988824708387,9.293651389889419,6.281161975581199,15.548634065780789,0,0,1761679172.52289
242.32494767894968,11.743285860866308,12.28744130441919,10.24171602865681,0,0,1761679172.52289
-73.81253547547385,9.66390148550272,8.914051544386894,15.238222369458526,0,0,1761679172.52289
-18.218922634143382,11.773205060511827,10.626925724092871,11.352466315496713,0,0,1761679172.52289
55.71515958989039,12.640861850231886,8.042654854711145,12.769888398703188,0,0,1761679172.52289
116.28283937228844,10.194967279210687,3.3528203102760017,12.769888398703188,0,0,1761679172.52289
208.88650217512622,9.951873782090843,7.818260857369751,10.185617529321462,0,0,1761679172.52289
6.950604067649692,13.628195438534021,11.46466331416741,14.127472082618624,0,0,1761679172.52289
-8.308187751565129,10.501639075577259,5.1330126891843975,10.428711026441306,0,0,1761679172.52289
28.84023850830272,13.400061541236937,8.300707951653749,13.45055019063875,0,0,1761679172.52289
106.05795289343223,10.905548270791769,8.895352044608444,11.726456311065704,0,0,1761679172.52289
84.94247774360701,13.901208135299385,4.9721969910897315,13.11395919462666,0,0,1761679172.52289
119.39817603537813,10.333343577571213,5.061954590026289,11.229049616958946,0,0,1761679172.52289
178.72046913253143,14.06576373334974,5.103093489538878,11.08693341864273,0,0,1761679172.52289
-41.851350454147905,12.996152346022427,5.664078482892364,9.755529034417123,0,0,1761679172.52289
19.729842216242105,7.5882570100948215,4.153158900793642,14.037714483682066,0,0,1761679172.52289
65.51369747379795,11.492712563835084,6.400838774163276,19.56902651814744,0,0,1761679172.52289
200.9279950694181,11.492712563835084,5.260169287677854,13.607625988777727,0,0,1761679172.52289
120.69592132000253,13.512258539907634,8.454043849837035,9.03746824292466,0,0,1761679172.52289
-138.1986531126313,13.2654251428321,8.203470552805811,12.526794901583344,0,0,1761679172.52289
57.30835697101429,11.851742959581316,8.62233934784308,10.140738729853183,0,0,1761679172.52289
99.1765369749628,14.664147726260126,5.507002684753388,16.464909554924816,0,0,1761679172.52289
185.8113194485195,17.899161187931895,7.661185059230775,12.332320103887469,0,0,1761679172.52289
113.22734110848978,12.248172354884446,4.732843393925577,11.999469007831067,0,0,1761679172.52289
-94.07531343540177,10.194967279210687,5.8361138808541,11.704016911331564,0,0,1761679172.52289
72.2006385945715,11.709626761265099,4.755282793659717,13.46550979046151,0,0,1761679172.52289
140.14340108959004,13.400061541236937,4.740323193836957,12.66891109989956,0,0,1761679172.52289
105.41469010105357,13.934867234900594,4.482270096894354,13.11395919462666,0,0,1761679172.52289
81.47559048468247,12.07239705696702,7.975336655508727,14.460323178675026,0,0,1761679172.52289
21.352958797011524,14.364955729804933,7.795821457635611,15.46635626675561,0,0,1761679172.52289
59.46627924544737,15.255051919259131,7.167518265079707,16.614505553152412,0,0,1761679172.52289
93.31611374439672,13.29908424243331,5.144232389051467,12.2463024049066,0,0,1761679172.52289
76.14997294778004,12.779238148592412,12.036868007387966,15.589772965293378,0,0,1761679172.52289
36.75012691458687,14.46967292856425,7.86313965683803,9.07860714243725,0,0,1761679172.52289
61.575582820456475,12.001338957808912,7.930457856040448,12.796067698393017,0,0,1761679172.52289
89.63231228804216,13.444940340705216,4.64308579498902,8.599899948108941,0,0,1761679172.52289
102.104878640268,13.138268544338644,4.564547895919532,12.725009599234909,0,0,1761679172.52289
111.74634072603658,10.606356274336576,13.86941898567602,12.594113100785762,0,0,1761679172.52289
72.3838936924003,12.87273564748466,9.916344732511789,15.159684470389038,0,0,1761679172.52289
87.8745593088679,14.372435529716313,10.047241230960935,15.417737567331642,0,0,1761679172.52289
24.232681762892753,10.322123877704144,8.166071553248912,8.932751044165343,0,0,1761679172.52289
55.932073787320405,14.996998822316527,7.1450788653455675,9.42641783831641,0,0,1761679172.52289
185.52708705188707,11.425394364632666,4.160638700705022,14.026494783814996,0,0,1761679172.52289
-64.97889178013429,13.213066543452442,7.934197755996138,10.413751426618546,0,0,1761679172.52289
-1.1986379357986152,9.802277783863246,5.03951519029215,14.101292782928795,0,0,1761679172.52289
83.78310875734314,12.917614446952939,6.412058474030346,9.288041539955884,0,0,1761679172.52289
101.2521814503707,6.944994217716157,6.195144276600331,10.563347424846143,0,0,1761679172.52289
116.05844537494704,10.501639075577259,6.1764447768218815,15.86652556201443,0,0,1761679172.52289
77.02136963745579,9.091696792282164,-0.21878414740785956,12.751188898924738,0,0,1761679172.52289
28.918776407372206,12.135975356213748,7.399392062332481,13.630065388511866,0,0,1761679172.52289
83.0949671654962,19.3427625708282,12.624032300431281,21.259461298119277,0,0,1761679172.52289
92.04454775946215,7.419961512088776,-2.294428622815758,6.849626768846065,0,0,1761679172.52289
153.77533642807975,13.557137339375913,4.022262402344495,14.206009981688112,0,0,1761679172.52289
30.594251587521285,11.791904560290277,8.719576746691018,13.828280086163431,0,0,1761679172.52289
10.151958429720253,9.69008078519255,6.6214928715489805,12.627772200386971,0,0,1761679172.52289
77.47763743204996,10.572697174735367,8.547541348729283,15.91888416139409,0,0,1761679172.52289
120.60242382111028,14.320076930336654,5.641639083158225,12.182724105659872,0,0,1761679172.52289
119.04662543954328,11.040184669196606,8.824293945450336,15.017568272072822,0,0,1761679172.52289
156.0903345006518,9.68260098528117,9.374059238936752,13.596406288910657,0,0,1761679172.52289
-106.07665239321068,9.514305487275124,4.119499801192433,16.966056148987263,0,0,1761679172.52289
96.8428394026123,13.568357039242983,11.389865315053612,15.776767963077873,0,0,1761679172.52289
139.07752960221842,12.124755656346679,3.2481031115166843,14.886671773623675,0,0,1761679172.52289
99.44580977177247,10.202447079122066,3.868926504161209,13.383231991436332,0,0,1761679172.52289
41.97476715268567,10.711073473095894,7.672404759097844,11.161731417756528,0,0,1761679172.52289
52.756898724939674,14.09942283295095,8.906571744475514,10.873759121168405,0,0,1761679172.52289
76.7221776410006,12.401508253067732,6.483116573188454,7.84444015705958,0,0,1761679172.52289
219.89302774472162,12.382808753289282,5.948310879524797,14.819353574421257,0,0,1761679172.52289
-43.814797930885106,12.401508253067732,4.441131197381765,10.204317029099911,0,0,1761679172.52289
16.427510555367917,13.149488244205713,4.63560599507764,12.904524797108024,0,0,1761679172.52289
125.44559426372871,13.65063483826816,10.305294327903539,15.331719868350774,0,0,1761679172.52289
52.738199225161225,11.3019776660949,10.413751426618546,15.458876466844231,0,0,1761679172.52289
74.70637156488374,10.135128879919648,2.933951515238732,16.027341260109097,0,0,1761679172.52289
150.13641377119347,9.043078092858195,7.002962667029351,9.703170435037464,0,0,1761679172.52289
37.427048806566745,9.577883786521852,11.87979220924899,13.659984588157386,0,0,1761679172.52289
24.105525164399296,12.88395534735173,7.272235463839024,10.428711026441306,0,0,1761679172.52289
123.35125028854236,14.151781432330608,5.222770288120955,13.719822987448424,0,0,1761679172.52289
46.92639469401911,15.389688317663968,7.339553663041443,7.496629461180419,0,0,1761679172.52289
52.98129272228107,13.523478239774704,4.6468256949447095,12.620292400475591,0,0,1761679172.52289
92.27642155671492,13.381362041458488,4.699184294324368,15.425217367243022,0,0,1761679172.52289
196.6271101203747,10.310904177837074,8.861692945007235,12.885825297329575,0,0,1761679172.52289
-13.192497093696147,11.417914564721286,4.759022693615407,12.69509039958939,0,0,1761679172.52289
51.533951439429075,11.27953826636076,6.026848778594285,13.989095784258097,0,0,1761679172.52289
59.170827148947865,12.47256635222584,4.9310580915771425,14.232189281377941,0,0,1761679172.52289
54.331396606285125,11.818083859980106,5.581800683867186,8.360546350944787,0,0,1761679172.52289
105.01452080579475,12.513705251738429,10.952297020237893,12.69883029954508,0,0,1761679172.52289
207.18110779533163,11.343116565607488,8.839253545273095,13.966656384523958,0,0,1761679172.52289
-22.478668683674186,12.50622545182705,6.277422075625509,11.689057311508805,0,0,1761679172.52289
53.67691411403939,12.928834146820009,9.228203140664846,8.24086955236271,0,0,1761679172.52289
54.06586370943114,13.198106943629682,9.168364741373807,12.044347807299346,0,0,1761679172.52289
118.58661774499342,12.326710253953934,9.396498638670892,12.721269699279219,0,0,1761679172.52289
209.16699467180297,10.288464778102934,7.231096564326435,16.031081160064787,0,0,1761679172.52289
-91.47608296619728,14.750165425240993,12.006948807742447,11.573120412882417,0,0,1761679172.52289
36.09564442234114,14.619268926791847,6.527995372656733,12.489395902026445,0,0,1761679172.52289
73.02341658482328,10.90180837083608,9.8752058329992,12.979322796221823,0,0,1761679172.52289
114.3680105949752,19.443739869631827,15.08114657131955,16.599545953329653,0,0,1761679172.52289
145.09502863092348,5.796844931319356,1.3856329335831106,7.45175066171214,0,0,1761679172.52289
155.22267771093175,11.492712563835084,7.328333963174373,7.870619456749409,0,0,1761679172.52289
171.78669461468235,13.504778739996254,8.308187751565129,8.857953045051545,0,0,1761679172.52289
171.62587891658768,11.23839936684817,4.4486109972931445,9.280561740044504,0,0,1761679172.52289
164.1311194053851,12.390288553200662,8.977629843633622,14.475282778497785,0,0,1761679172.52289
123.17547499062493,13.179407443851233,2.245809923391789,6.722470170352608,0,0,1761679172.52289
114.58118489244953,15.763678313232958,7.975336655508727,7.994036155287176,0,0,1761679172.52289
256.7347822082229,11.66474796179682,5.095613689627498,11.995729107875377,0,0,1761679172.52289
156.40822599688545,12.693220449611545,7.721023458521813,15.657091164495796,0,0,1761679172.52289
27.299399726558477,12.364109253510833,4.759022693615407,7.620046159718186,0,0,1761679172.52289
119.8170448304154,8.983239693567157,5.507002684753388,6.195144276600331,0,0,1761679172.52289
179.6928431210108,13.213066543452442,8.771935346070677,12.575413601007313,0,0,1761679172.52289
257.6173985977657,13.381362041458488,2.698337818030268,8.106233153957874,0,0,1761679172.52289
93.49188904231414,11.593689862638712,5.768795681651682,10.402531726751477,0,0,1761679172.52289
36.05076562287286,14.342516330070794,5.245209687855095,11.150511717889458,0,0,1761679172.52289
127.53993823891506,12.704440149478614,3.8876260039396584,16.206856457982212,0,0,1761679172.52289
152.55986894248053,15.27749131899327,10.058460930828005,8.831773745361716,0,0,1761679172.52289
171.3977450192906,11.922801058739424,4.093320501502603,8.700877246912569,0,0,1761679172.52289
159.93495165510103,10.209926879033446,5.174151588696986,9.258122340310365,0,0,1761679172.52289
166.00854918314144,13.889988435432315,4.661785294767469,10.533428225200623,0,0,1761679172.52289
145.9739051205106,13.534697939641774,4.598206995520741,14.374305479694158,0,0,1761679172.52289
101.24470165045932,10.355782977305353,7.04410156654194,12.373459003400058,0,0,1761679172.52289
148.19166579423472,7.9472874058410525,8.109973053913563,12.414597902912647,0,0,1761679172.52289
177.9500497416593,10.793351272121072,3.225663711782545,6.6214928715489805,0,0,1761679172.52289
70.46906491508707,11.724586361087859,9.86398613313213,11.027095019351691,0,0,1761679172.52289
162.74735642177984,11.877922259271145,11.341246615629643,13.832019986119121,0,0,1761679172.52289
145.7943899226375,14.282677930779755,3.6856714063324034,12.900784897152334,0,0,1761679172.52289
126.06267775641754,14.51081182807684,6.815967669244856,6.453197373542935,0,0,1761679172.52289
140.96617907984182,13.093389744870365,7.971596755553037,14.834313174244016,0,0,1761679172.52289
159.2767292628996,9.428287788294256,8.136152353603393,11.778814910445362,0,0,1761679172.52289
267.34861828247085,15.225132719613612,5.222770288120955,10.600746424403042,0,0,1761679172.52289
42.13932275073603,11.743285860866308,3.0835475134663284,13.731042687315494,0,0,1761679172.52289
80.14792600041255,8.605509798042476,3.6333128069527447,9.632112335879356,0,0,1761679172.52289
108.4028701656498,9.619022686034441,5.783755281474441,10.424971126485616,0,0,1761679172.52289
147.3090494046919,13.530958039686084,4.845040392596275,11.180430917534977,0,0,1761679172.52289
244.68108465103433,15.131635220721364,7.646225459408015,13.753482087049633,0,0,1761679172.52289
127.38286244077608,12.09483645670116,10.735382822807878,14.546340877655894,0,0,1761679172.52289
121.56731800967827,9.933174282312393,5.391065786127001,6.894505568314344,0,0,1761679172.52289
156.13521330012009,10.258545578457415,4.6505655949003994,8.988849543500692,0,0,1761679172.52289
172.8787454017438,8.261439002119005,5.0208156905137,11.04579451913014,0,0,1761679172.52289
163.40931871393695,14.544470927678049,5.8174143810756505,12.930704096797854,0,0,1761679172.52289
180.91205050656572,11.522631763480604,8.64477874757722,9.987402831669897,0,0,1761679172.52289
140.94373968010768,11.67596766166389,10.024801831226796,9.370319338981062,0,0,1761679172.52289
134.55599055578932,10.381962276995182,9.609672936145216,14.733335875440389,0,0,1761679172.52289
290.0909499130212,9.469426687806845,3.939984603319317,11.528241613414139,0,0,1761679172.52289
151.72961115231737,12.315490554086864,5.080654089804739,11.270188516471535,0,0,1761679172.52289
86.3187609273009,11.619869162328541,4.759022693615407,9.650811835657805,0,0,1761679172.52289
98.40611758409068,10.726033072918653,6.954343967605382,6.520515572745353,0,0,1761679172.52289
167.7700420622714,13.474859540350735,3.868926504161209,9.523655237164348,0,0,1761679172.52289
233.82789497962222,11.70588686130941,1.6623855303041637,11.45344361430034,0,0,1761679172.52289
112.32602521916851,14.525771427899599,6.9431242677383125,12.336060003843158,0,0,1761679172.52289
145.21844532946125,10.606356274336576,8.326887251343578,10.914898020680994,0,0,1761679172.52289
135.0870563494973,10.666194673627615,11.603039612527937,14.643578276503831,0,0,1761679172.52289
137.3010771232657,9.297391289845109,4.837560592684895,8.68591764708981,0,0,1761679172.52289
177.05621365224943,11.578730262815952,5.619199683424085,12.27622160455212,0,0,1761679172.52289
249.86832588957623,12.364109253510833,4.4486109972931445,13.974136184435338,0,0,1761679172.52289
106.76105408510193,10.535298175178468,9.07112734252587,9.48999613756314,0,0,1761679172.52289
72.60454778978601,11.320677165873349,8.611119647976011,8.786894945893437,0,0,1761679172.52289
140.8240628815256,11.567510562948883,6.348480174783617,9.48251633765176,0,0,1761679172.52289
185.04463995760307,10.610096174292266,4.934797991532832,8.424124650191516,0,0,1761679172.52289
174.64397818082944,13.459899940527976,5.233989987988025,10.66058482369408,0,0,1761679172.52289
134.79908405290917,11.814343960024416,12.422077702824026,10.978476319927722,0,0,1761679172.52289
92.78130805073306,10.729772972874343,5.963270479347557,13.349572891835123,0,0,1761679172.52289
149.84096167469397,12.966233146376908,6.045548278372735,8.326887251343578,0,0,1761679172.52289
157.93036527885124,13.66185453813523,9.602193136233836,15.48131586657837,0,0,1761679172.52289
276.20844127750024,9.824717183597386,0.42821854492649436,9.007549043279141,0,0,1761679172.52289
92.93838384887204,12.678260849788785,8.465263549704105,13.547787589486688,0,0,1761679172.52289
52.760638624895364,12.356629453599453,8.929011144209653,8.050134654622525,0,0,1761679172.52289
134.57469005556777,13.343963041901588,9.385278938803822,11.292627916205674,0,0,1761679172.52289
139.00273160310462,10.572697174735367,2.339307422284037,10.703593673184514,0,0,1761679172.52289
167.73638296267018,13.25420544296503,3.2032243120484054,10.04537128098309,0,0,1761679172.52289
4.074621001724154,13.830150036141276,6.086687177885324,11.223439767025411,0,0,1761679172.52289
8.62981914775446,13.055990745313466,8.162331653293222,14.679107326082885,0,0,1761679172.52289
115.7405538787134,11.503932263702154,10.219276628922671,11.889141959138215,0,0,1761679172.52289
88.5814004004933,12.659561350010335,3.8016083049587905,14.282677930779755,0,0,1761679172.52289
138.35572891077027,8.489572899416089,6.4980761730112135,12.236952655017376,0,0,1761679172.52289
75.6114273541607,11.193520567379892,8.22217005258426,14.705286625772715,0,0,1761679172.52289
110.70664853835478,11.874182359315455,6.572874172125012,14.260238531045616,0,0,1761679172.52289
42.93592144129798,11.754505560733378,9.706910334993154,14.45845322869718,0,0,1761679172.52289
108.1448170687072,13.400061541236937,7.7472027582116425,7.823870707303286,0,0,1761679172.52289
66.44867246272042,9.428287788294256,6.737429770175368,8.84486339520663,0,0,1761679172.52289
94.49418223043904,10.367002677172422,3.861446704249829,9.147795291617513,0,0,1761679172.52289
37.774859502445906,12.248172354884446,5.469603685196489,11.885402059182525,0,0,1761679172.52289
80.13670630054548,8.736406296491623,7.930457856040448,8.84112349525094,0,0,1761679172.52289
244.20237745670602,10.669934573583305,6.318560975138098,10.666194673627615,0,0,1761679172.52289
4.871219692286104,9.544224686920643,9.377799138892442,6.559784522280097,0,0,1761679172.52289
72.13332039536908,13.239245843142271,5.753836081828922,12.726879549212754,0,0,1761679172.52289
101.59625224629417,13.71421313751489,9.519915337208658,12.790457848459482,0,0,1761679172.52289
122.51725259842351,11.25335896667093,7.410611762199551,9.327310489490628,0,0,1761679172.52289
237.84080763207749,9.970573281869292,3.2780223111622036,12.917614446952939,0,0,1761679172.52289
83.3904192619957,11.717106561176479,1.3370142341591418,9.607802986167371,0,0,1761679172.52289
-5.207810688298196,10.527818375267088,9.84154673339799,14.05828393343836,0,0,1761679172.52289
47.73795298440382,9.66016158554703,7.6275259596295655,12.49500575195998,0,0,1761679172.52289
116.15194287383929,10.217406678944826,8.794374745804816,13.164447844028473,0,0,1761679172.52289
121.83285090653226,8.82242399547249,6.703770670574158,14.90724122337997,0,0,1761679172.52289
118.67263544397429,7.793951507657766,9.187064241152257,15.602862615138292,0,0,1761679172.52289
156.44188509648666,7.333943813107908,8.66347824735567,10.426841076463461,0,0,1761679172.52289
56.09662938537076,14.357475929893553,10.832620221655816,9.62650248594582,0,0,1761679172.52289
49.065617468673736,13.014851845800877,2.5487418198026717,12.988672546111047,0,0,1761679172.52289
90.49622917780653,15.569203515537083,6.307341275271028,12.113535956479609,0,0,1761679172.52289
115.54607908101752,10.277245078235865,0.8545671398751438,14.694066925905645,0,0,1761679172.52289
162.14523252891377,12.566063851118088,7.335813763085753,11.088803368620574,0,0,1761679172.52289
108.8479182603769,14.009665234014392,3.8838861039839685,10.385702176950872,0,0,1761679172.52289
32.04533277032897,16.025471310131252,7.8257406572811306,11.156121567822993,0,0,1761679172.52289
61.69525961903855,15.939453611150384,11.45344361430034,12.4501269524917,0,0,1761679172.52289
125.87194285867736,14.982039222493768,1.853120428044349,11.466533264145255,0,0,1761679172.52289
134.88884165184572,13.198106943629682,6.6214928715489805,10.262285478413105,0,0,1761679172.52289
96.21827611001208,14.963339722715318,9.740569434594363,13.515998439863324,0,0,1761679172.52289
36.200361621100456,13.721692937426269,8.046394754666835,11.346856465563178,0,0,1761679172.52289
101.55137344682589,11.68718736153096,6.322300875093788,10.984086169861257,0,0,1761679172.52289
85.97843003133312,14.821223524399102,6.206363976467401,13.362662541680038,0,0,1761679172.52289
171.5473410175182,12.551104251295328,8.23712965240702,19.178206972777843,0,0,1761679172.52289
128.55345112690702,8.85982299502939,4.1269796011038125,13.388841841369867,0,0,1761679172.52289
-12.115405906457454,9.129095791839063,8.117452853824943,11.380515565164387,0,0,1761679172.52289
83.56619455991313,9.798537883907557,6.969303567428142,11.66848786175251,0,0,1761679172.52289
89.49019608972594,12.07239705696702,10.357652927283198,12.008818757720292,0,0,1761679172.52289
133.88654846372083,11.066363968886435,7.02914196671918,10.804570971988142,0,0,1761679172.52289
165.3914656904526,11.612389362417161,3.951204303186387,9.69008078519255,0,0,1761679172.52289
68.52431693812832,10.019191981293261,2.9975298144854605,14.338776430115104,0,0,1761679172.52289
27.15728352824226,12.0798768568784,3.981123502831906,12.925094246864319,0,0,1761679172.52289
116.9261021646671,13.385101941414177,5.82863408094272,13.022331645712256,0,0,1761679172.52289
219.93042674427852,10.131388979963958,7.713543658610433,11.032704869285226,0,0,1761679172.52289
-28.870157707948238,14.443493628874421,5.5743208839558065,15.378468617796898,0,0,1761679172.52289
5.320007686968893,10.580176974646747,3.8464871044270694,11.971419758163393,0,0,1761679172.52289
113.83320490131155,9.828457083553076,6.023108878638595,10.662454773671925,0,0,1761679172.52289
129.19297401933,11.776944960467517,4.198037700261921,13.990965734235942,0,0,1761679172.52289
45.65856860904023,10.209926879033446,4.313974598888308,12.981192746199667,0,0,1761679172.52289
111.48828762909397,11.776944960467517,13.45429009059444,9.899515182711184,0,0,1761679172.52289
120.0376989278011,11.975159658119082,5.862293180543929,10.138868779875338,0,0,1761679172.52289
81.44567128503695,12.524924951605499,7.870619456749409,6.881415918469429,0,0,1761679172.52289
68.12788754282519,11.043924569152296,10.099599830340594,12.588503250852227,0,0,1761679172.52289
122.34521720046178,10.015452081337571,7.328333963174373,13.149488244205713,0,0,1761679172.52289
68.24382444145158,10.965386670082808,2.1859715241007507,8.556891098618507,0,0,1761679172.52289
114.04637919878587,11.006525569595397,9.789188134018332,14.256498631089926,0,0,1761679172.52289
26.607518234755844,8.699007296934724,5.555621384177357,12.147195056080818,0,0,1761679172.52289
91.89495176123455,12.745579048991203,5.529442084487528,12.50248555187136,0,0,1761679172.52289
125.43437456386164,14.249018831178546,8.315667551476508,13.205586743541062,0,0,1761679172.52289
201.13742946693674,13.759091936983168,6.9842631672509015,13.789011136628687,0,0,1761679172.52289
45.99889950500801,14.249018831178546,6.415798373986036,14.177960732020438,0,0,1761679172.52289
57.36819537030533,13.201846843585372,8.783155045937747,10.613836074247956,0,0,1761679172.52289
79.96841080253944,13.957306634634733,5.076914189849049,11.855482859537005,0,0,1761679172.52289
77.93390522664413,9.439507488161325,9.138445541728288,11.67596766166389,0,0,1761679172.52289
162.3210078268312,11.399215064942837,3.2780223111622036,10.236106178723276,0,0,1761679172.52289
88.92547119641677,11.732066160999238,4.456090797204524,10.022931881248951,0,0,1761679172.52289
80.53313569584861,10.89058867096901,7.937937655951828,9.753659084439278,0,0,1761679172.52289
91.22924956912175,13.018591745756567,8.169811453204602,10.426841076463461,0,0,1761679172.52289
76.56510184286162,13.845109635964036,7.294674863573164,11.803124260157347,0,0,1761679172.52289
78.73050391720608,10.755952272564173,8.786894945893437,10.08651018049568,0,0,1761679172.52289
210.42360105691478,13.942347034811974,9.534874937031418,11.68718736153096,0,0,1761679172.52289
90.51492867758498,9.6713812854141,5.738876482006162,1.7128741797059774,0,0,1761679172.52289
-41.53719885786995,13.774051536805928,12.440777202602476,12.726879549212754,0,0,1761679172.52289
63.939199592452496,9.084216992370784,8.349326651077718,15.068056921474636,0,0,1761679172.52289
89.00400909548625,13.545917639508843,5.581800683867186,7.954767205752432,0,0,1761679172.52289
85.36134653864428,12.188333955593407,8.469003449659795,14.959599822759628,0,0,1761679172.52289
124.86216987064108,13.908687935210764,6.019368978682905,13.740392437204719,0,0,1761679172.52289
140.25933798821643,13.142008444294333,4.841300492640585,15.142854920588434,0,0,1761679172.52289
33.71706805052236,10.714813373051584,10.926117720548064,14.09194303303957,0,0,1761679172.52289
94.18377053411677,10.692373973317444,5.151712188962847,14.368695629760623,0,0,1761679172.52289
119.94046152895316,11.369295865297318,2.447764520999044,13.041031145490706,0,0,1761679172.52289
66.10460166679695,9.22259329073131,7.369472862686962,17.027764498256147,0,0,1761679172.52289
72.29413609346375,8.156721803359687,6.266202375758439,11.631088862195611,0,0,1761679172.52289
77.79926882823929,10.561477474868298,5.2526894877664745,8.493312799371779,0,0,1761679172.52289
98.80254697939381,14.177960732020438,8.540061548817903,14.46967292856425,0,0,1761679172.52289
144.99031143216416,8.302577901631594,7.167518265079707,10.995305869728327,0,0,1761679172.52289
33.20470175659284,12.304270854219794,4.6094266953878105,13.26916504278779,0,0,1761679172.52289
33.95268174773082,9.087956892326474,11.816213910002261,15.531804515980184,0,0,1761679172.52289
97.25422839773819,13.085909944958985,7.44801076175645,11.26831856649369,0,0,1761679172.52289
173.23403589753434,16.590196203440428,5.622939583379775,13.875028835609555,0,0,1761679172.52289
51.72094643721357,13.901208135299385,5.768795681651682,9.544224686920643,0,0,1761679172.52289
83.91400525579229,12.999892245978117,9.254382440354675,10.44554057624191,0,0,1761679172.52289
77.61601373041049,14.252758731134236,4.186818000394851,9.854636383242905,0,0,1761679172.52289
53.20194681966677,14.353736029937863,5.929611379746348,13.826410136185586,0,0,1761679172.52289
74.83726806333289,11.956460158340633,5.462123885285109,13.119569044560194,0,0,1761679172.52289
146.62464771280065,14.189180431887507,5.645378983113915,12.46508655231446,0,0,1761679172.52289
15.369118867907673,9.64146208576858,7.807041157502681,14.978299322538078,0,0,1761679172.52289
109.45378205319867,12.334190053865314,7.485409761313349,6.42888802383095,0,0,1761679172.52289
42.46469404688105,9.533004987053573,5.1292727892287076,9.499345887452364,0,0,1761679172.52289
83.76814915752038,7.4274413120001554,11.632958812173456,13.097129644826055,0,0,1761679172.52289
155.6490263058804,12.682000749744475,8.925271244253963,11.769465160556138,0,0,1761679172.52289
45.77824540762231,11.331896865740418,7.081500566098839,11.152381667867303,0,0,1761679172.52289
102.97627532994375,12.940053846687078,1.5913274311460555,10.224886478856206,0,0,1761679172.52289
62.779830606188625,9.398368588648736,8.614859547931701,12.85403614770621,0,0,1761679172.52289
88.77961509814486,13.889988435432315,7.792081557679921,13.549657539464533,0,0,1761679172.52289
63.77090409444645,11.324417065829039,8.715836846735328,15.554243915714324,0,0,1761679172.52289
103.20440922724083,13.860069235786796,6.333520574960858,12.188333955593407,0,0,1761679172.52289
107.28464007889852,10.03041168116033,9.02998844301328,12.375328953377903,0,0,1761679172.52289
101.86552504310384,13.512258539907634,8.012735655065626,13.164447844028473,0,0,1761679172.52289
61.67282021930441,11.840523259714246,7.750942658167332,10.176267779432237,0,0,1761679172.52289
100.62761815777048,11.507672163657844,8.820554045494646,15.041877621784806,0,0,1761679172.52289
98.23782208608463,9.334790289402008,8.199730652850121,13.796490936540067,0,0,1761679172.52289
126.48902635136619,10.05659098085016,5.290088487323374,11.406694864854217,0,0,1761679172.52289
30.601731387432665,9.869595983065665,6.965563667472452,11.313197365961969,0,0,1761679172.52289
56.25370518350974,13.575836839154363,5.073174289893359,13.31030394230038,0,0,1761679172.52289
133.01515177404508,12.595983050763607,6.64019237132743,12.356629453599453,0,0,1761679172.52289
53.22064631944522,11.735806060954928,8.790634845849127,11.152381667867303,0,0,1761679172.52289
78.22935732314363,9.615282786078751,9.336660239379853,13.68055403791368,0,0,1761679172.52289
103.41758352471516,12.349149653688073,5.9370911796577275,12.90639474708587,0,0,1761679172.52289
-11.169211217667907,11.167341267690063,7.2647556639276445,12.599722950719297,0,0,1761679172.52289
168.55916095292196,13.112089244648814,4.590727195609361,9.529265087097883,0,0,1761679172.52289
64.72083868319169,10.946687170304358,8.386725650634617,15.116675620898604,0,0,1761679172.52289
61.69151971908286,16.0441708099097,6.789788369555026,16.96418619900942,0,0,1761679172.52289
18.899584426078945,15.73001921363175,2.571181219536811,10.02667178120464,0,0,1761679172.52289
105.94201599480584,12.416467852890491,5.387325886171311,12.308010754175484,0,0,1761679172.52289
172.5047554061748,5.710827232338488,9.003809143323451,10.150088479742408,0,0,1761679172.52289
-9.411458238493651,10.669934573583305,8.700877246912569,8.811204295605421,0,0,1761679172.52289
26.947849130723625,10.101469780318439,7.679884559009224,10.385702176950872,0,0,1761679172.52289
66.89372055744752,10.344563277438283,9.317960739601403,11.739545960910618,0,0,1761679172.52289
111.30503253126517,13.31030394230038,7.900538656394929,11.29823776613921,0,0,1761679172.52289
117.95457465248182,14.982039222493768,10.67180452356115,11.402954964898527,0,0,1761679172.52289
109.26678705541417,10.703593673184514,5.712697182316333,13.860069235786796,0,0,1761679172.52289
91.11705257045105,14.361215829849243,8.988849543500692,13.725432837381959,0,0,1761679172.52289
11.718976511154324,11.189780667424202,8.914051544386894,17.914120787754655,0,0,1761679172.52289
107.9204230713658,13.216806443408132,6.920684868004173,15.823516712523997,0,0,1761679172.52289
88.07651390647516,11.477752964012325,9.216983440797776,10.722293172962964,0,0,1761679172.52289
135.66300094267353,12.812897248193622,7.006702566985041,13.171927643939853,0,0,1761679172.52289
24.75252785673365,11.541331263259053,6.1390457772649825,13.732912637293339,0,0,1761679172.52289
87.87081940891221,9.001939193345606,10.361392827238888,13.459899940527976,0,0,1761679172.52289
46.05873790429905,10.972866469994187,7.519068860914558,12.674520949833095,0,0,1761679172.52289
70.13621381903067,9.966833381913602,10.110819530207664,16.362062306143343,0,0,1761679172.52289
124.43582127569243,9.921954582445323,10.215536728966981,12.87647554744035,0,0,1761679172.52289
83.27448236336932,11.993859157897532,12.960623296443373,13.351442841812968,0,0,1761679172.52289
86.77128882193938,12.016298557631671,6.22880337620154,7.289065013639629,0,0,1761679172.52289
161.71514403400943,11.720846461132169,9.957483632024378,11.735806060954928,0,0,1761679172.52289
53.41886101709679,10.610096174292266,5.364886486437172,14.249018831178546,0,0,1761679172.52289
50.14270865591243,14.07324353326112,7.9080184563063085,10.774651772342622,0,0,1761679172.52289
60.756544730160385,12.173374355770648,6.692550970707089,8.553151198662817,0,0,1761679172.52289
125.13892246736214,14.133081932552159,10.036021531093866,11.496452463790774,0,0,1761679172.52289
81.40079248556867,12.337929953821003,9.374059238936752,12.4501269524917,0,0,1761679172.52289
78.37895332137123,11.567510562948883,9.523655237164348,8.728926496580243,0,0,1761679172.52289
123.35125028854236,11.533851463347673,8.023955354932696,8.313797601498663,0,0,1761679172.52289
171.02001512376592,13.100869544781744,5.245209687855095,9.147795291617513,0,0,1761679172.52289
84.56474784808233,13.373882241547108,7.5041092610917985,10.980346269905567,0,0,1761679172.52289
65.7156520714052,12.016298557631671,6.049288178328425,12.947533646598458,0,0,1761679172.52289
98.48091558320448,12.532404751516879,2.1036937250755727,11.586210062727332,0,0,1761679172.52289
14.449103478807956,10.759692172519863,2.735736817587167,6.466287023387849,0,0,1761679172.52289
100.65005755750462,14.252758731134236,4.5271488963626325,12.423947652801871,0,0,1761679172.52289
131.14146189624444,13.31030394230038,6.202624076511711,11.556290863081813,0,0,1761679172.52289
48.261538978200406,12.8577760476619,7.0590611663647,9.68634088523686,0,0,1761679172.52289
0.1327664484269917,7.962247005663812,4.964717191178352,9.66764138545841,0,0,1761679172.52289
92.01836845977232,11.021485169418156,6.685071170795709,6.9038553182035685,0,0,1761679172.52289
144.8668947336264,11.713366661220789,6.744909570086747,11.103762968443334,0,0,1761679172.52289
25.313512850087136,15.011958422139287,11.595559812616557,12.270611754618585,0,0,1761679172.52289
77.00267013767734,12.569803751073778,12.766148498747498,14.955859922803938,0,0,1761679172.52289
105.27631380269304,11.077583668753505,8.300707951653749,13.66185453813523,0,0,1761679172.52289
84.57222764799371,11.66474796179682,9.198283941019326,12.816637148149312,0,0,1761679172.52289
74.72881096461788,8.912181594409049,12.605332800652832,10.49789917562157,0,0,1761679172.52289
70.52142351446673,10.84196997154504,4.601946895476431,17.970219287090003,0,0,1761679172.52289
128.47117332788184,11.316937265917659,7.773382057901472,14.989519022405148,0,0,1761679172.52289
70.47654471499845,11.907841458916664,7.152558665256947,11.926540958695114,0,0,1761679172.52289
37.827218101825565,11.64604846201837,1.894259327556938,12.023778357543051,0,0,1761679172.52289
73.52456317888573,14.86984222382307,4.396252397913486,12.835336647927761,0,0,1761679172.52289
118.83719104202464,12.420207752846181,0.8657868397422135,9.390888788737357,0,0,1761679172.52289
21.390357796568424,13.392581741325557,5.578060783911496,10.333343577571213,0,0,1761679172.52289
116.07714487472549,14.671627526171505,11.778814910445362,14.024624833837152,0,0,1761679172.52289
54.14440160850063,14.163001132197678,5.551881484221667,13.796490936540067,0,0,1761679172.52289
87.77358201006427,10.363262777216733,6.673851470928639,13.190627143718302,0,0,1761679172.52289
38.51161979371682,12.543624451383948,7.365732962731272,14.46593302860856,0,0,1761679172.52289
136.02203133841977,13.69177373778075,6.322300875093788,12.581023450940847,0,0,1761679172.52289
27.882824119646102,10.557737574912608,8.326887251343578,17.225979195907712,0,0,1761679172.52289
74.63157356576994,9.065517492592335,8.364286250900477,12.711919949389994,0,0,1761679172.52289
186.67897623823956,7.835090407170355,6.7000307706184685,11.64230856206268,0,0,1761679172.52289
26.30832623830065,9.64520198572427,2.462724120821804,16.45929970499128,0,0,1761679172.52289
17.684116940479726,11.043924569152296,3.6482724067755044,14.155521332286298,0,0,1761679172.52289
182.23223519092426,11.993859157897532,0.402039245236665,12.244432454928756,0,0,1761679172.52289
34.67074253922328,15.083016521297395,4.897398991975933,13.856329335831106,0,0,1761679172.52289
32.30712576722726,10.411881476640701,8.25582915218547,7.790211607702076,0,0,1761679172.52289
71.54241620237008,15.498145416378975,3.3902193098329008,11.365555965341628,0,0,1761679172.52289
59.170827148947865,11.100023068487644,11.07945361873135,8.923401294276118,0,0,1761679172.52289
147.18563270615414,13.033551345579326,9.097306642215699,10.348303177393973,0,0,1761679172.52289
115.17208908544853,9.619022686034441,5.649118883069605,14.047064233571291,0,0,1761679172.52289
-5.83985378080979,12.173374355770648,1.086440937127918,10.387572126928717,0,0,1761679172.52289
78.52480941964313,11.773205060511827,7.189957664813846,13.244855693075806,0,0,1761679172.52289
92.50081555405632,9.25625239033252,5.981969979126006,11.726456311065704,0,0,1761679172.52289
65.70443237153813,13.66559443809092,1.0303424377925694,10.043501331005245,0,0,1761679172.52289
84.84150044480339,12.020038457587361,5.308787987101823,10.806440921965986,0,0,1761679172.52289
100.55656005861238,12.435167352668941,5.809934581164271,10.185617529321462,0,0,1761679172.52289
114.68216219125316,8.347456701099873,8.61859944788739,13.607625988777727,0,0,1761679172.52289
128.08970353240147,8.612989597953856,8.26704885205254,11.184170817490667,0,0,1761679172.52289
44.13268942711875,7.120769515633583,9.617152736056596,12.837206597905606,0,0,1761679172.52289
34.977414335589856,10.45676027610898,9.901385132689029,12.833466697949916,0,0,1761679172.52289
111.32373203104362,10.06033088080585,7.649965359363705,12.033128107432276,0,0,1761679172.52289
152.2344976463355,11.922801058739424,3.659492106642574,13.267295092809945,0,0,1761679172.52289
52.57364362711087,14.821223524399102,3.8427472044713795,8.061354354489595,0,0,1761679172.52289
23.10697187623009,16.758491701446474,3.1994844120927155,9.976183131802827,0,0,1761679172.52289
46.339230400975794,14.312597130425274,7.46297036157921,10.163178129587322,0,0,1761679172.52289
111.38357043033466,8.717706796713173,7.541508260648698,7.152558665256947,0,0,1761679172.52289
51.937860634643584,11.032704869285226,9.261862240266055,13.936737184878439,0,0,1761679172.52289
59.73929194221273,11.328156965784729,7.320854163262993,13.846979585941881,0,0,1761679172.52289
58.90903415204957,10.318383977748454,6.026848778594285,12.624032300431281,0,0,1761679172.52289
103.79905332019553,12.165894555859268,4.141939200926572,12.227602905128151,0,0,1761679172.52289
82.54520187200978,11.27953826636076,6.561654472257942,14.894151573535055,0,0,1761679172.52289
81.58404758339748,11.578730262815952,5.387325886171311,12.912004597019404,0,0,1761679172.52289
34.82033853745088,13.893728335388005,10.316514027770609,13.4692496904172,0,0,1761679172.52289
98.93718337779865,14.832443224266171,8.730796446558088,13.360792591702193,0,0,1761679172.52289
31.63020387524739,12.543624451383948,6.520515572745353,11.87979220924899,0,0,1761679172.52289
108.78807986108586,15.629041914828122,7.631265859585255,13.955436684656888,0,0,1761679172.52289
38.46674099424854,11.152381667867303,6.995482867117971,10.447410526219755,0,0,1761679172.52289
-18.70510962838307,9.817237383686006,2.447764520999044,12.882085397373885,0,0,1761679172.52289
82.96407066704705,16.84450940042734,7.526548660825938,15.586033065337688,0,0,1761679172.52289
87.88577900873497,11.900361659005284,9.310480939690024,11.827433609869331,0,0,1761679172.52289
115.90510947676376,11.26831856649369,11.199130417313427,11.569380512926728,0,0,1761679172.52289
183.86283157160506,13.949826834723353,9.523655237164348,10.997175819706172,0,0,1761679172.52289
-25.481808348093182,13.609495938755572,7.492889561224729,13.233635993208736,0,0,1761679172.52289
6.191404376644641,12.581023450940847,8.068834154400975,13.813320486340672,0,0,1761679172.52289
87.07048081839457,12.192073855549097,6.262462475802749,10.870019221212715,0,0,1761679172.52289
75.6862253532745,13.209326643496752,2.5637014196254313,5.589280483778566,0,0,1761679172.52289
57.577629767823964,11.627348962239921,12.68387069972232,19.18755672266707,0,0,1761679172.52289
134.50737185636535,10.43058097641915,6.995482867117971,14.68471717601642,0,0,1761679172.52289
54.80636390065774,12.10231625661254,4.508449396584183,12.28744130441919,0,0,1761679172.52289
17.418584043625742,12.513705251738429,7.006702566985041,13.061600595247,0,0,1761679172.52289
36.50329351751134,9.551704486832023,6.314821075182408,10.798961122054607,0,0,1761679172.52289
52.61478252662346,10.07155058067292,3.6520123067311943,11.262708716560155,0,0,1761679172.52289
55.094336197245866,13.160707944072783,6.793528269510716,12.036868007387966,0,0,1761679172.52289
128.95736032212153,11.975159658119082,6.827187369111925,14.912851073313504,0,0,1761679172.52289
34.86521733691916,13.063470545224845,5.260169287677854,12.186464005615562,0,0,1761679172.52289
118.20514794951305,9.102916492149234,6.400838774163276,15.204563269857317,0,0,1761679172.52289
182.97273538215086,12.46882645227015,5.727656782139093,6.322300875093788,0,0,1761679172.52289
-41.1856482620351,13.444940340705216,2.1036937250755727,5.83237398089841,0,0,1761679172.52289
-26.603778334800154,13.523478239774704,4.673004994634539,18.218922634143382,0,0,1761679172.52289
56.05549048585817,10.85318967141211,8.446564049925655,8.562500948552042,0,0,1761679172.52289
87.94561740802601,15.976852610707283,-0.09536744887009263,14.632358576636761,0,0,1761679172.52289
45.68848780868575,10.87936897110194,10.746602522674948,10.346433227416128,0,0,1761679172.52289
115.64331647986546,14.596829527057707,7.893058856483549,12.870865697506815,0,0,1761679172.52289
67.54820304969326,12.90265484713018,9.123485941905528,5.660338582936674,0,0,1761679172.52289
83.12114646518603,8.994459393434227,2.414105421397835,10.997175819706172,0,0,1761679172.52289
114.41288939444348,9.387148888781667,5.959530579391867,9.127225841861218,0,0,1761679172.52289
97.53098099445924,10.85318967141211,10.193097329232842,11.266448616515845,0,0,1761679172.52289
72.92243928601965,12.969973046332598,12.051827607210726,9.03746824292466,0,0,1761679172.52289
61.02207762701437,14.765125025063753,10.903678320813924,14.849272774066776,0,0,1761679172.52289
-4.949757591355592,11.406694864854217,3.4276183093898,8.136152353603393,0,0,1761679172.52289
71.53119650250301,13.444940340705216,9.504955737385899,13.390711791347712,0,0,1761679172.52289
110.08582514571026,10.524078475311399,5.305048087146133,12.466956502292305,0,0,1761679172.52289
95.11126572312787,12.820377048105001,8.21469025267288,14.598699477035552,0,0,1761679172.52289
61.70273941894993,8.268918802030385,5.903432080056518,14.621138876769692,0,0,1761679172.52289
80.58549429522827,9.357229689136147,4.504709496628493,12.171504405792803,0,0,1761679172.52289
1.9914967264048755,10.213666778989136,5.952050779480487,11.722716411110014,0,0,1761679172.52289
96.30429380899295,11.997599057853222,7.765902257990092,12.040607907343656,0,0,1761679172.52289
105.55680629936978,10.707333573140204,9.736829534638673,11.591819912660867,0,0,1761679172.52289
15.227002669591457,15.337329718284309,1.3108349344693124,11.191650617402047,0,0,1761679172.52289
116.58203136874363,9.551704486832023,5.398545586038381,17.43728354340419,0,0,1761679172.52289
73.2365908822976,17.7495651897043,9.366579439025372,13.128918794449419,0,0,1761679172.52289
166.29278157977387,11.324417065829039,6.931904567871243,10.28659482812509,0,0,1761679172.52289
-63.28845700016245,12.121015756390989,11.412304714787751,14.66601767623797,0,0,1761679172.52289
48.54203147487715,10.288464778102934,7.481669861357659,6.198884176556021,0,0,1761679172.52289
85.43240463780239,12.199553655460477,7.717283558566123,15.040007671806961,0,0,1761679172.52289
71.87152739847079,13.811450536362827,6.65515197115019,10.488549425732344,0,0,1761679172.52289
116.84756426559761,10.703593673184514,2.9227318153716624,13.775921486783773,0,0,1761679172.52289
146.2768370169215,7.535898410715163,3.7155906059779227,12.336060003843158,0,0,1761679172.52289
-9.968703331891447,12.726879549212754,5.106833389494568,14.905371273402125,0,0,1761679172.52289
33.754467050079256,9.933174282312393,7.85191995697096,12.092966506723315,0,0,1761679172.52289
44.35708342446014,14.88854172360152,8.988849543500692,9.06364754261449,0,0,1761679172.52289
71.99120419705287,13.231766043230891,10.769041922409087,12.051827607210726,0,0,1761679172.52289
153.2031317348592,18.392827982082963,6.7823085696436465,11.206610217224807,0,0,1761679172.52289
111.12177743343636,8.583070398308337,10.223016528878361,11.827433609869331,0,0,1761679172.52289
-2.1111735249869525,10.337083477526903,6.423278173897415,13.211196593474597,0,0,1761679172.52289
62.13656781380996,12.958753346465528,3.7604694054462016,11.386125415097922,0,0,1761679172.52289
60.741585130337626,14.608049226924777,7.657445159275085,14.66975757619366,0,0,1761679172.52289
109.23312795581296,9.518045387230814,7.657445159275085,15.91140436148271,0,0,1761679172.52289
229.23155793407932,12.659561350010335,6.797268169466406,14.228449381422251,0,0,1761679172.52289
-101.83186594350263,9.783578284084797,8.308187751565129,15.657091164495796,0,0,1761679172.52289
70.32320881681517,11.021485169418156,5.061954590026289,15.806687162723392,0,0,1761679172.52289
65.13596757827327,10.524078475311399,11.748895710799843,9.280561740044504,0,0,1761679172.52289
108.37295096600428,12.48004615213722,6.183924576733261,10.361392827238888,0,0,1761679172.52289
77.11112723639235,11.937760658562183,6.8608464687131345,14.68097727606073,0,0,1761679172.52289
171.4688031184487,9.62650248594582,9.673251235391945,7.365732962731272,0,0,1761679172.52289
-8.424124650191516,9.65642168559134,10.866279321257025,14.452843378763646,0,0,1761679172.52289
37.875836801249534,13.138268544338644,6.385879174340516,12.523055001627654,0,0,1761679172.52289
56.86330887628719,11.171081167645752,6.729949970263988,13.143878394272178,0,0,1761679172.52289
184.89878385933116,12.577283550985157,7.732243158388883,10.514728725422174,0,0,1761679172.52289
44.94798761745915,8.717706796713173,11.023355119396001,9.815367433708161,0,0,1761679172.52289
-6.733689870219678,8.209080402739346,8.846733345184475,12.178984205704182,0,0,1761679172.52289
75.63760665385053,10.340823377482593,9.654551735613495,12.29118120437488,0,0,1761679172.52289
95.42541731940582,13.893728335388005,10.26789532834664,12.64647170016542,0,0,1761679172.52289
131.14520179620013,9.394628688693047,6.3372604749165475,12.119145806413144,0,0,1761679172.52289
103.81401292001829,11.68344746157527,7.982816455420107,11.546941113192588,0,0,1761679172.52289
94.05661393562332,12.06491725705564,5.611719883512706,14.378045379649848,0,0,1761679172.52289
205.75246601225808,13.317783742211759,7.750942658167332,15.933843761216849,0,0,1761679172.52289
-73.3861868805252,8.904701794497669,3.8539669043384492,11.995729107875377,0,0,1761679172.52289
31.383370478171855,9.824717183597386,2.2009311239235103,11.685317411553115,0,0,1761679172.52289
83.18472476443276,10.355782977305353,6.079207377973944,15.46635626675561,0,0,1761679172.52289
109.84273164859042,10.587656774558127,10.458630226086825,13.809580586384982,0,0,1761679172.52289
111.92959582386538,8.676567897200584,6.991742967162281,7.066540966276079,0,0,1761679172.52289
72.56714879022911,12.764278548769653,4.414951897691935,11.288888016249985,0,0,1761679172.52289
44.12520962720737,9.23755289055407,5.230250088032335,10.043501331005245,0,0,1761679172.52289
23.57819927064702,14.821223524399102,6.277422075625509,17.785094239283353,0,0,1761679172.52289
64.36554818740115,10.707333573140204,5.566841084044427,13.637545188423246,0,0,1761679172.52289
118.32482474809512,16.54905730392784,6.060507878195494,7.575167360249907,0,0,1761679172.52289
151.35562115674838,12.214513255283237,12.538014601450413,12.418337802868336,0,0,1761679172.52289
55.546864091884345,14.181700631976128,7.762162358034402,12.64273180020973,0,0,1761679172.52289
27.92770291911438,9.297391289845109,5.989449779037386,11.356206215452403,0,0,1761679172.52289
57.603809067513794,9.390888788737357,7.45175066171214,14.6547979763709,0,0,1761679172.52289
107.9204230713658,11.092543268576264,9.83032703353092,11.195390517357737,0,0,1761679172.52289
143.65516714798287,14.342516330070794,9.684470935259014,13.327133492100984,0,0,1761679172.52289
87.6913042110391,12.326710253953934,7.388172362465411,13.47672949032858,0,0,1761679172.52289
73.21041158260778,13.220546343363822,5.671558282803744,14.26958828093484,0,0,1761679172.52289
4.803901493083686,15.329849918372929,10.417491326574236,12.496875701937824,0,0,1761679172.52289
96.67828380456194,11.69466716144234,7.174998064991087,12.713789899367839,0,0,1761679172.52289
114.95143498806283,10.961646770127118,4.897398991975933,13.962916484568268,0,0,1761679172.52289
53.04861092148349,13.029811445623636,0.7124509415589273,12.373459003400058,0,0,1761679172.52289
119.5552518335171,14.155521332286298,4.777722193393856,8.289488251786679,0,0,1761679172.52289
75.19255855912343,11.560030763037503,9.093566742260009,13.764701786916703,0,0,1761679172.52289
99.94695636583492,12.88021544739604,12.485656002070755,11.573120412882417,0,0,1761679172.52289
100.18630996299908,8.586810298264027,6.707510570529848,9.658291635569185,0,0,1761679172.52289
81.32599448645487,10.108949580229819,9.205763740930706,11.113112718332559,0,0,1761679172.52289
30.40725658973679,13.68429393786937,8.24086955236271,19.625125017482787,0,0,1761679172.52289
130.35982280550525,10.247325878590345,11.786294710356742,9.88268563291058,0,0,1761679172.52289
59.90758744021878,9.499345887452364,7.242316264193505,10.6905040233396,0,0,1761679172.52289
88.07277400651947,11.27579836640507,6.318560975138098,11.580600212793797,0,0,1761679172.52289
108.76564046135172,14.417314329184592,8.902831844519824,8.341846851166338,0,0,1761679172.52289
78.54350891942158,14.641708326525986,7.616306259762496,11.50206231372431,0,0,1761679172.52289
71.73689100006595,11.945240458473563,7.657445159275085,10.402531726751477,0,0,1761679172.52289
48.23535967851058,14.308857230469584,10.402531726751477,11.801254310179502,0,0,1761679172.52289
104.1057251165621,13.68429393786937,7.130119265522808,14.493982278276235,0,0,1761679172.52289
163.203624216374,8.612989597953856,9.396498638670892,12.003208907786757,0,0,1761679172.52289
20.79571370361373,9.835936883464456,8.67095804726705,11.176691017579287,0,0,1761679172.52289
8.62981914775446,13.579576739110053,7.560207760427147,10.937337420415133,0,0,1761679172.52289
121.23446691362187,10.48293957579881,3.1172066130675375,15.440176967065781,0,0,1761679172.52289
130.02697170944884,12.05743745714426,6.63271257141605,7.952897255774587,0,0,1761679172.52289
80.4658174966462,12.274351654574275,9.84154673339799,13.90307808527723,0,0,1761679172.52289
82.29836847493425,15.621562114916742,8.382985750678927,12.30240090424195,0,0,1761679172.52289
56.52297798031941,13.29534434247762,8.517622149083763,13.293474392499775,0,0,1761679172.52289
103.30912642600015,13.082170045003295,4.134459401015192,16.154497858602554,0,0,1761679172.52289
109.20694865612313,12.513705251738429,10.26415542839095,14.075113483238965,0,0,1761679172.52289
110.04842614615336,14.035844533704221,7.612566359806806,12.014428607653826,0,0,1761679172.52289
-8.884132344741374,14.09942283295095,10.316514027770609,16.992235448677093,0,0,1761679172.52289
85.316467739176,10.4866794757545,9.89390533277765,11.531981513369828,0,0,1761679172.52289
137.454413021449,9.596583286300302,7.762162358034402,11.670357811730355,0,0,1761679172.52289
20.111312011722475,9.218853390775621,9.42267793836072,8.22964985249564,0,0,1761679172.52289
47.3751826887019,11.877922259271145,4.800161593127996,11.202870317269117,0,0,1761679172.52289
80.7238705935888,9.301131189800799,6.62897267146036,9.938784132245928,0,0,1761679172.52289
83.01642926642671,11.582470162771642,11.692797211464494,12.975582896266133,0,0,1761679172.52289
115.24688708456233,10.04911118093878,2.7207772177644074,10.331473627593368,0,0,1761679172.52289
36.664109215606004,14.211619831621647,7.8257406572811306,15.87400536192581,0,0,1761679172.52289
42.79380524298176,10.43432087637484,8.035175054799765,13.89933818532154,0,0,1761679172.52289
78.80530191631988,13.762831836938858,3.5585148078389466,13.192497093696147,0,0,1761679172.52289
187.58029212756082,10.984086169861257,4.714143894147128,12.915744496975094,0,0,1761679172.52289
5.316267787013203,10.90180837083608,8.820554045494646,10.64188532391563,0,0,1761679172.52289
71.22078480618075,10.288464778102934,4.500969596672803,13.390711791347712,0,0,1761679172.52289
140.7530047823675,13.388841841369867,8.065094254445285,12.960623296443373,0,0,1761679172.52289
149.69884547637776,15.217652919702232,8.555021148640662,11.917191208805889,0,0,1761679172.52289
7.661185059230775,12.50996535178274,9.763008834328502,11.47962291399017,0,0,1761679172.52289
-11.954590208362788,14.712766425684094,11.187910717446357,9.908864932600409,0,0,1761679172.52289
96.69698330434039,10.718553273007274,4.358853398356587,11.120592518243939,0,0,1761679172.52289
94.0640937355347,11.818083859980106,1.527749131899327,12.418337802868336,0,0,1761679172.52289
51.27589834248647,14.675367426127195,6.714990370441228,8.315667551476508,0,0,1761679172.52289
125.39323566434905,8.620469397865236,5.794974981341511,11.341246615629643,0,0,1761679172.52289
8.139892253559083,10.262285478413105,6.165225076954812,14.789434374775738,0,0,1761679172.52289
44.727333520073444,14.664147726260126,3.3640400101430714,8.872912644874305,0,0,1761679172.52289
166.2105037807487,14.727726025506854,12.725009599234909,13.293474392499775,0,0,1761679172.52289
86.6142130238004,10.329603677615523,1.6810850300826132,11.180430917534977,0,0,1761679172.52289
6.707510570529848,12.932574046775699,6.815967669244856,10.555867624934763,0,0,1761679172.52289
6.183924576733261,14.940900322981179,4.818861092906445,13.226156193297356,0,0,1761679172.52289
109.39020375395194,13.826410136185586,5.83237398089841,10.23797612870112,0,0,1761679172.52289
106.55909948749468,11.567510562948883,5.286348587367684,14.602439376991242,0,0,1761679172.52289
109.26678705541417,11.313197365961969,7.287195063661784,14.793174274731427,0,0,1761679172.52289
51.31329734204337,12.603462850674987,7.234836464282125,12.511835301760584,0,0,1761679172.52289
57.177460472565144,14.929680623114109,4.893659092020243,12.556714101228863,0,0,1761679172.52289
7.919238156173378,11.474013064056635,4.545848396141082,13.835759886074811,0,0,1761679172.52289
119.12890323856845,13.463639840483665,10.970996520016342,13.125178894493729,0,0,1761679172.52289
185.39619055343792,14.032104633748531,4.545848396141082,14.351866079960018,0,0,1761679172.52289
-71.11980750737712,13.69177373778075,7.201177364680916,4.414951897691935,0,0,1761679172.52289
-0.31602154625579715,12.401508253067732,4.018522502388805,9.632112335879356,0,0,1761679172.52289
66.50103106210008,13.055990745313466,6.157745277043432,11.87979220924899,0,0,1761679172.52289
82.42178517347202,7.206787214614451,6.142785677220672,13.49168909015134,0,0,1761679172.52289
137.24123872397467,13.029811445623636,9.340400139335543,7.780861857812852,0,0,1761679172.52289
52.674620925914496,9.125355891883373,6.6514120711945,11.281408216338605,0,0,1761679172.52289
43.39218923589215,12.349149653688073,6.198884176556021,14.172350882086903,0,0,1761679172.52289
97.42626379569992,14.282677930779755,6.490596373099834,13.042901095468551,0,0,1761679172.52289
95.05890712374821,12.07613695692271,5.518222384620458,12.64273180020973,0,0,1761679172.52289
179.3674718248658,9.869595983065665,8.929011144209653,13.49542899010703,0,0,1761679172.52289
141.32520947558805,13.175667543895543,6.557914572302252,4.396252397913486,0,0,1761679172.52289
-125.50169276306406,12.317360504064709,7.930457856040448,11.674097711686045,0,0,1761679172.52289
47.37144278874621,14.755775275174528,7.792081557679921,11.000915719661862,0,0,1761679172.52289
101.23348195059225,11.161731417756528,7.03288186667487,12.968103096354753,0,0,1761679172.52289
100.45558275980875,9.018768743146211,3.8090881048701704,10.421231226529926,0,0,1761679172.52289
219.1974063529633,8.872912644874305,5.84733358072117,12.448257002513856,0,0,1761679172.52289
-8.910311644431204,10.832620221655816,5.398545586038381,11.88727200916037,0,0,1761679172.52289
58.4901653570123,8.973889943677932,4.515929196495563,14.374305479694158,0,0,1761679172.52289
89.10124649433419,13.233635993208736,6.9805232672952116,15.432697167154402,0,0,1761679172.52289
99.53930727066472,7.814520957414061,7.7060638586990535,11.44222391443327,0,0,1761679172.52289
157.38433988532051,13.686163887847215,5.708957282360643,14.123732182662934,0,0,1761679172.52289
175.48545567085966,8.412904950324446,8.461523649748415,13.944216984789819,0,0,1761679172.52289
-42.4085955475457,10.806440921965986,4.710403994191438,16.517268154304475,0,0,1761679172.52289
6.920684868004173,15.776767963077873,9.815367433708161,16.008641760330647,0,0,1761679172.52289
98.32009988510981,13.409411291126162,6.879545968491584,14.426664079073817,0,0,1761679172.52289
160.2752825510688,13.970396284479648,6.180184676777571,7.44053096184507,0,0,1761679172.52289
198.82243139436468,12.388418603222817,7.421831462066621,10.540908025112003,0,0,1761679172.52289
-27.11240472877398,11.599299712572247,8.22590995253995,13.809580586384982,0,0,1761679172.52289
4.673004994634539,10.933597520459443,14.176090782042593,10.585786824580282,0,0,1761679172.52289
81.7635627812706,9.964963431935757,9.632112335879356,14.755775275174528,0,0,1761679172.52289
97.73667549202219,12.885825297329575,10.963516720104963,13.566487089265138,0,0,1761679172.52289
80.91460549132898,10.133258929941803,5.600500183645636,6.793528269510716,0,0,1761679172.52289
152.34295474505052,12.65021160012111,7.922978056129068,11.816213910002261,0,0,1761679172.52289
116.26787977246568,12.485656002070755,3.6033936073072255,14.30698728049174,0,0,1761679172.52289
261.34981875354424,10.64562522387132,-4.022262402344495,12.227602905128151,0,0,1761679172.52289
245.7693955381401,13.573966889176518,-0.4917968441732228,21.47637549554929,0,0,1761679172.52289
-32.213628268335015,1.452951132785529,-8.035175054799765,11.184170817490667,0,0,1761679172.52289
61.160453925374895,9.157145041506737,-0.5366756436415017,18.791127327363938,0,0,1761679172.52289
154.22038452280685,9.02624854305759,0.7274105413816869,16.23303575767204,0,0,1761679172.52289
157.6461328822188,8.869172744918615,-0.009349749889224768,14.31072718044743,0,0,1761679172.52289
206.20873380685225,10.899938420858234,-3.098507113289088,14.505201978143305,0,0,1761679172.52289
205.38595581660047,8.323147351387888,-3.865186604205519,15.047487471718341,0,0,1761679172.52289
66.54216996161267,11.184170817490667,-1.5090496321208775,11.748895710799843,0,0,1761679172.52289
113.63125030370429,9.411458238493651,-2.1111735249869525,11.04205461917445,0,0,1761679172.52289
125.99909945717081,9.134705641772598,-2.8404540163464844,12.777368198614568,0,0,1761679172.52289
193.69128865515813,9.519915337208658,1.610026930924505,9.923824532423168,0,0,1761679172.52289
285.5544512667693,6.030588678549975,0.25618314696475863,17.377445144113153,0,0,1761679172.52289
125.4867331632413,5.922131579834968,-1.292135434690863,13.989095784258097,0,0,1761679172.52289
27.53501342376694,7.070280866231769,2.301908422727138,16.539707554038614,0,0,1761679172.52289
109.54727955209091,7.620046159718186,-1.8606002279557288,13.588926488999277,0,0,1761679172.52289
164.49388970108703,9.576013836544007,-2.1971912239678204,12.713789899367839,0,0,1761679172.52289
192.31500547146425,9.374059238936752,-4.362593298312277,19.57650631805882,0,0,1761679172.52289
44.41318192379549,10.6905040233396,-1.5913274311460555,16.835159650538117,0,0,1761679172.52289
142.6379143600352,10.204317029099911,-1.7633628291077912,11.90223160898313,0,0,1761679172.52289
170.3243937320076,9.624632535967976,-1.1462793364189565,9.908864932600409,0,0,1761679172.52289
162.6164599233307,10.847579821478575,-0.4356983448378742,15.5074951662682,0,0,1761679172.52289
311.8721272549592,4.269095799420029,1.0266025378368795,11.247749116737396,0,0,1761679172.52289
-26.74589453311637,7.302154663484544,2.2233705236576498,15.814166962634772,0,0,1761679172.52289
91.73413606313989,10.114559430163354,0.282362446654588,13.91803768509999,0,0,1761679172.52289
144.8332356340252,5.9744901792146266,-1.490350132342428,10.421231226529926,0,0,1761679172.52289
171.15091162221506,9.920084632467479,0.2973220464773476,18.480715631041676,0,0,1761679172.52289
161.8722198321484,8.805594445671886,4.20925740012899,14.737075775396079,0,0,1761679172.52289
235.56694845901802,6.752389369998127,4.777722193393856,12.938183896709234,0,0,1761679172.52289
173.26769499713555,10.488549425732344,-6.670111570972949,16.431250455323607,0,0,1761679172.52289
104.45727571239695,1.8568603280000389,-4.7702423934824765,16.203116558026522,0,0,1761679172.52289
120.7819390189834,9.007549043279141,-4.23917659977451,16.614505553152412,0,0,1761679172.52289
138.1201152135618,6.898245468270034,0.2374836471863091,15.86278566205874,0,0,1761679172.52289
251.01647517597303,7.03662176663056,-2.3056483226828277,17.09321274748072,0,0,1761679172.52289
150.89935336215422,9.673251235391945,-1.8792997277341783,17.209149646107107,0,0,1761679172.52289
55.576783291529864,6.213843776378781,-6.4606771734543145,18.080546335782856,0,0,1761679172.52289
187.72240832587704,6.191404376644641,-4.441131197381765,11.210350117180496,0,0,1761679172.52289
104.44231611257419,9.149665241595358,-4.949757591355592,12.971842996310443,0,0,1761679172.52289
179.2889339257963,7.780861857812852,-0.925625239033252,13.86567908572033,0,0,1761679172.52289
148.6815926884301,7.84444015705958,-1.6586456303484738,10.619445924181491,0,0,1761679172.52289
172.5084953061305,7.6686648591421545,0.10658714873716235,10.424971126485616,0,0,1761679172.52289
155.13666001195088,9.647071935702115,-1.6399461305700243,14.617398976814002,0,0,1761679172.52289
169.41933794273064,6.774828769732267,-5.4135051858611405,16.64068485284224,0,0,1761679172.52289
97.90497099002823,6.5392150725238025,-3.1209465130232275,13.91803768509999,0,0,1761679172.52289
100.40322416042909,6.924424767959863,-0.10284724878147244,14.557560577522963,0,0,1761679172.52289
176.77572115557268,8.483963049482554,-6.774828769732267,15.627171964850277,0,0,1761679172.52289
299.2985836039297,9.389018838759512,-7.485409761313349,15.223262769635767,0,0,1761679172.52289
21.614751793909818,9.258122340310365,-4.538368596229702,15.728149263653904,0,0,1761679172.52289
109.17702945647761,12.822246998082846,1.527749131899327,11.531981513369828,0,0,1761679172.52289
174.4345437833108,11.704016911331564,2.690858018118888,9.691950735170394,0,0,1761679172.52289
103.67937652161345,12.193943805526942,1.7110042297281325,11.49084261385724,0,0,1761679172.52289
238.40179262543097,10.68676412338391,0.6413928424008191,14.591219677124172,0,0,1761679172.52289
196.36531712347642,10.23797612870112,2.2645094231702387,13.229896093253046,0,0,1761679172.52289
20.466602507513016,9.385278938803822,-0.8770065396092832,16.072220059577376,0,0,1761679172.52289
38.1488494980149,10.039761431049556,0.7722893408499658,13.805840686429292,0,0,1761679172.52289
158.34175427397713,4.63186609512195,-4.744063093792647,13.207456693518907,0,0,1761679172.52289
194.28219284815714,9.351619839202613,-1.131319736596197,11.165471317712218,0,0,1761679172.52289
153.76411672821268,7.919238156173378,-2.1523124244995415,13.731042687315494,0,0,1761679172.52289
107.62123107491061,7.601346659939736,0.4618776445277035,12.893305097240955,0,0,1761679172.52289
156.07911480078474,11.427264314610511,7.702323958743364,16.001161960419267,0,0,1761679172.52289
136.35862233443186,11.46466331416741,-0.8957060393877327,17.13061174703762,0,0,1761679172.52289
150.92179276188836,9.579753736499697,-3.902585603762418,14.400484779383987,0,0,1761679172.52289
96.72316260403022,10.544647925067693,-5.462123885285109,14.905371273402125,0,0,1761679172.52289
99.95817606570199,8.528841848950833,-6.3783993744291365,14.579999977257103,0,0,1761679172.52289
103.78409372037277,7.7883416577242315,-1.329534434247762,13.947956884745508,0,0,1761679172.52289
238.52894922392443,6.913205068092793,-2.855413616169244,14.486502478364855,0,0,1761679172.52289
100.20126956282184,8.087533654179424,0.9031858392991126,12.863385897595435,0,0,1761679172.52289
25.90067714313045,9.8752058329992,-3.9736437029205263,9.979923031758517,0,0,1761679172.52289
146.1235011187382,6.404578674118966,-2.2345902235247195,15.46635626675561,0,0,1761679172.52289
166.59197357622907,5.802454781252891,-2.096213925164193,12.893305097240955,0,0,1761679172.52289
178.3240397372283,8.540061548817903,1.5053097321651876,10.458630226086825,0,0,1761679172.52289
135.66300094267353,10.997175819706172,-1.5352289318107069,14.30698728049174,0,0,1761679172.52289
101.98894174164161,12.773628298658878,-0.60399384284392,16.143278158735484,0,0,1761679172.52289
93.8060406385921,9.08982684230432,-1.045302037615329,12.728749499190599,0,0,1761679172.52289
159.92373195523396,8.880392444785684,-1.1201000367291272,15.634651764761657,0,0,1761679172.52289
331.92921071732417,12.635252000298351,-2.21215082379058,10.492289325688034,0,0,1761679172.52289
-4.6094266953878105,9.920084632467479,-0.1851250478066504,16.917437449563295,0,0,1761679172.52289
51.8219237360172,9.84528663335368,-0.8657868397422135,14.565040377434343,0,0,1761679172.52289
146.3142360164784,10.368872627150267,-7.324594063218683,14.086333183106035,0,0,1761679172.52289
149.23135798191652,8.405425150413066,-0.1888649477623403,13.742262387182564,0,0,1761679172.52289
335.8785450705327,9.785448234062642,0.7797691407613456,16.909957649651915,0,0,1761679172.52289
68.09796834317967,11.311327415984124,-2.406625621486455,11.659138111863285,0,0,1761679172.52289
-20.649857605341822,10.432450926396996,-1.0415621376596391,11.924671008717269,0,0,1761679172.52289
92.09316645888612,5.03577529033646,-5.9370911796577275,14.27706808084622,0,0,1761679172.52289
157.88922637933865,7.219876864459366,-3.255582911428064,14.063893783371896,0,0,1761679172.52289
165.9449708838947,7.8668795567937195,-1.7521431292407215,13.125178894493729,0,0,1761679172.52289
146.8640013099648,9.605933036189526,0.847087339963764,12.796067698393017,0,0,1761679172.52289
159.33656766219065,9.744309334550053,-0.6339130424894392,16.109619059134275,0,0,1761679172.52289
212.5964829311706,11.371165815275162,-2.855413616169244,17.88981143804267,0,0,1761679172.52289
51.945340434554964,5.671558282803744,1.3931127334944904,12.964363196399063,0,0,1761679172.52289
130.40470160497352,4.64308579498902,-0.17016544798389077,15.350419368129224,0,0,1761679172.52289
114.6672025914304,9.362839539069682,-3.4388380092568696,13.394451691303402,0,0,1761679172.52289
143.38963425112888,10.574567124713212,-5.8174143810756505,17.014674848411232,0,0,1761679172.52289
282.79814499942586,10.166918029543012,-4.504709496628493,7.724763358477503,0,0,1761679172.52289
137.2711579236202,9.269342040177435,-0.27114274678751826,16.67808385239914,0,0,1761679172.52289
44.95546741737053,7.489149661269039,1.3332743342034519,17.003455148544163,0,0,1761679172.52289
170.60862612864003,5.82863408094272,-3.7978684050031006,14.781954574864358,0,0,1761679172.52289
155.59292780654505,8.603639848064631,-3.5547749078832567,14.131211982574314,0,0,1761679172.52289
139.14484780142084,8.091273554135114,0.5890342430211604,13.151358194183558,0,0,1761679172.52289
340.4786220160313,9.602193136233836,0.8246479402296245,19.53162751859054,0,0,1761679172.52289
116.52967276936397,16.464909554924816,1.8830396276898682,14.830573274288327,0,0,1761679172.52289
55.23271249560639,8.876652544829994,-3.3603001101873815,16.625725253019482,0,0,1761679172.52289
44.49171982286498,5.985709879081696,-2.6422393186949193,12.111666006501764,0,0,1761679172.52289
158.2445168751292,6.22506347624585,-0.0018699499778449535,12.208903405349702,0,0,1761679172.52289
152.32425524527207,8.581200448330492,-1.7895421287976205,16.457429755013436,0,0,1761679172.52289
171.75303551508114,10.922377820592374,0.9742439384572208,14.935290473047644,0,0,1761679172.52289
238.4990300242789,9.86024623317644,1.5501885316334665,11.932150808628649,0,0,1761679172.52289
86.49827612517402,8.472743349615484,-0.402039245236665,16.221816057804972,0,0,1761679172.52289
155.77992280432954,4.040961902122945,-4.601946895476431,18.37599843228236,0,0,1761679172.52289
169.9840628360398,5.8959522801451385,2.1149134249426425,14.202270081732422,0,0,1761679172.52289
166.33018057933077,7.930457856040448,-0.17764524789527059,13.256075392942876,0,0,1761679172.52289
119.3719967356883,10.911158120725304,-4.542108496185392,13.248595593031496,0,0,1761679172.52289
155.3909732089378,11.696537111420184,-1.4978299322538078,13.05038089537993,0,0,1761679172.52289
135.10575584927574,6.913205068092793,-2.986310114618391,15.608472465071827,0,0,1761679172.52289
303.99963784823194,7.275975363794714,-2.530042320024222,15.316760268528014,0,0,1761679172.52289
32.47168136527762,11.44970371434465,0.05796844931319356,13.802100786473602,0,0,1761679172.52289
47.75291258422658,9.8752058329992,-1.0153828379698098,15.335459768306464,0,0,1761679172.52289
127.08741034427658,6.946864167694002,1.572627931367606,14.834313174244016,0,0,1761679172.52289
196.32043832400814,9.714390134904534,0.41699884505942464,14.729595975484699,0,0,1761679172.52289
177.41898394795135,11.793774510268122,-1.00416313810274,11.528241613414139,0,0,1761679172.52289
87.07048081839457,11.827433609869331,-2.5898807193152606,14.931550573091954,0,0,1761679172.52289
106.43568278895691,8.409165050368756,-2.9152520154602826,14.374305479694158,0,0,1761679172.52289
159.04859536560252,9.617152736056596,0.5665948432870209,13.390711791347712,0,0,1761679172.52289
117.31131186010316,5.230250088032335,-0.6301731425337493,12.197683705482632,0,0,1761679172.52289
179.77886081999168,7.926717956084758,-5.806194681208581,16.427510555367917,0,0,1761679172.52289
189.4016234059818,8.786894945893437,2.975090414751321,13.07282029511407,0,0,1761679172.52289
117.67034225584939,8.353066551033407,2.3580069220624864,16.977275848854333,0,0,1761679172.52289
135.13567504892126,7.713543658610433,-4.392512497957796,16.012381660286337,0,0,1761679172.52289
52.17347433185205,9.684470935259014,-1.6698653302155435,11.640438612084836,0,0,1761679172.52289
108.34677166631445,7.822000757325441,-3.3303809105418622,13.588926488999277,0,0,1761679172.52289
142.89596745697781,7.807041157502681,-6.63645247137174,12.407118103001267,0,0,1761679172.52289
289.1110961246304,9.45633703796193,4.755282793659717,15.4700961667113,0,0,1761679172.52289
1.6623855303041637,14.078853383194655,-3.9325048034079373,16.865078850183636,0,0,1761679172.52289
160.82878774451092,6.427018073853105,-5.866033080499619,9.987402831669897,0,0,1761679172.52289
202.20704085426405,6.845886868890375,1.2285571354441345,15.608472465071827,0,0,1761679172.52289
87.354713215027,9.785448234062642,-4.452350897248834,12.515575201716274,0,0,1761679172.52289
189.61479770345613,13.768441686872393,3.147125812713057,14.381785279605538,0,0,1761679172.52289
144.04411674337462,11.0981531185098,0.9144055391661823,12.149065006058663,0,0,1761679172.52289
40.95751436473802,12.070527106989175,3.1246864129789174,15.047487471718341,0,0,1761679172.52289
120.22095402562991,7.563947660382837,-3.4313582093454897,12.459476702380925,0,0,1761679172.52289
152.7992225396447,0.8994459393434227,-1.2322970353998244,11.625479012262076,0,0,1761679172.52289
185.46350875264034,7.807041157502681,-1.6212466307915747,17.014674848411232,0,0,1761679172.52289
157.35816058563069,7.728503258433193,-5.918391679879278,13.042901095468551,0,0,1761679172.52289
106.24868779117242,9.587233536411077,-3.7193305059336126,13.88063868554309,0,0,1761679172.52289
160.41739874938503,11.06449401890859,-0.7386302412487566,12.25378220481798,0,0,1761679172.52289
211.54557104362175,8.457783749792725,-2.3841862217523158,13.49542899010703,0,0,1761679172.52289
18.34233933268115,8.809334345627576,0.3534205458126962,15.249442069325596,0,0,1761679172.52289
191.56328558037058,7.178737964946777,0.09910734882578254,16.72670255182311,0,0,1761679172.52289
258.4326967881061,4.586987295653671,-4.904878791887313,14.793174274731427,0,0,1761679172.52289
-63.587648996617645,12.28744130441919,-3.9586841030977666,9.284301640000194,0,0,1761679172.52289
136.2314657359384,9.02998844301328,5.8136744811199605,12.414597902912647,0,0,1761679172.52289
154.52705631917343,10.357652927283198,0.21878414740785956,13.925517485011369,0,0,1761679172.52289
147.51848380221054,3.9699038029648364,1.3744132337160408,13.51412848988548,0,0,1761679172.52289
175.07780657568946,5.518222384620458,1.6249865307472646,16.943616749253124,0,0,1761679172.52289
185.6579835503362,5.241469787899405,-0.6264332425780594,13.846979585941881,0,0,1761679172.52289
79.7589764050208,3.1546056126244366,0.7535898410715163,11.419784514699131,0,0,1761679172.52289
113.48539420543239,10.451150426175445,0.32350134616717696,15.342939568217844,0,0,1761679172.52289
99.00450157700107,8.842993445228785,-5.4135051858611405,15.731889163609594,0,0,1761679172.52289
164.26575580378994,9.317960739601403,2.8030550167895854,10.436190826352686,0,0,1761679172.52289
108.85539806028828,5.985709879081696,-5.925871479790658,14.66975757619366,0,0,1761679172.52289
183.4028238770552,9.632112335879356,-2.7058176179416478,16.30783375678584,0,0,1761679172.52289
127.89148883474991,11.027095019351691,-1.0378222377039492,15.657091164495796,0,0,1761679172.52289
87.88951890869066,7.904278556350619,-3.82030780473724,15.799207362812012,0,0,1761679172.52289
81.52420918410644,4.676744894590229,0.05422854935750365,11.621739112306386,0,0,1761679172.52289
127.70449383696541,8.147372053470463,-4.332674098666757,15.4700961667113,0,0,1761679172.52289
164.04510170640424,10.054721030872315,-0.843347440008074,16.30035395687446,0,0,1761679172.52289
196.72060761926696,5.6154597834683955,1.1574990362860262,12.089226606767625,0,0,1761679172.52289
150.34210826875642,9.523655237164348,-0.6900115418247879,15.683270464185625,0,0,1761679172.52289
21.431496696081012,7.204917264636606,1.6549057303927839,15.241962269414216,0,0,1761679172.52289
124.86590977059677,10.784001522231847,-3.0012697144411504,13.07656019506976,0,0,1761679172.52289
158.6147669707425,12.814767198171467,-6.026848778594285,16.061000359710306,0,0,1761679172.52289
186.3648246419616,8.401685250457376,4.048441702034324,16.128318558912724,0,0,1761679172.52289
212.5291647319682,9.82658713357523,1.9653174267150462,16.169457458425313,0,0,1761679172.52289
59.125948349479586,9.216983440797776,-1.6287264307029545,12.885825297329575,0,0,1761679172.52289
51.58631003880873,11.614259312395006,-7.511589061003178,13.738522487226874,0,0,1761679172.52289
152.6795457410626,8.25582915218547,-8.562500948552042,15.08862637123093,0,0,1761679172.52289
157.3918196852319,14.112512482795864,6.664501721039414,13.856329335831106,0,0,1761679172.52289
34.4426086419262,13.667464388068765,2.1616621743887663,9.446987288072705,0,0,1761679172.52289
49.117976068053395,15.144724870566279,10.681154273450375,8.201600602827966,0,0,1761679172.52289
111.06567893410102,10.533428225200623,9.600323186255991,11.3019776660949,0,0,1761679172.52289
30.84482488455251,17.197929946240038,5.826764130964875,8.257699102163315,0,0,1761679172.52289
97.3626854964532,15.099846071098,9.918214682489634,9.170234691351652,0,0,1761679172.52289
54.91482099937275,14.576260077301413,8.45217389985919,10.767171972431242,0,0,1761679172.52289
116.67926876759157,12.822246998082846,6.107256627641618,9.087956892326474,0,0,1761679172.52289
25.410750248935074,8.25208925222978,5.24333973787725,15.397168117575347,0,0,1761679172.52289
117.63668315624818,14.123732182662934,8.88600229471922,12.652081550098956,0,0,1761679172.52289
134.06980356154963,14.28828778071329,10.187487479299307,11.952720258384943,0,0,1761679172.52289
-4.444871097337455,15.260661769192666,6.193274326622486,14.376175429672003,0,0,1761679172.52289
82.47414377285168,13.233635993208736,9.331050389446318,13.815190436318517,0,0,1761679172.52289
53.00373212201521,14.183570581953973,4.779592143371701,9.005679093301296,0,0,1761679172.52289
127.25944574223831,12.223863005172461,13.583316639065742,15.565463615581393,0,0,1761679172.52289
15.634651764761657,14.172350882086903,4.682354744523764,13.25420544296503,0,0,1761679172.52289
89.53507488919422,12.347279703710228,5.486433234997094,12.322970353998244,0,0,1761679172.52289
73.01219688495621,12.481916102115065,3.698761056177318,7.378822612576187,0,0,1761679172.52289
63.6774065955542,10.866279321257025,5.9763601291924715,13.28412464261055,0,0,1761679172.52289
88.11391290603206,7.474190061446279,9.963093481957912,9.301131189800799,0,0,1761679172.52289
78.54350891942158,10.997175819706172,5.23212003801018,14.839923024177551,0,0,1761679172.52289
86.03826843062416,9.516175437252969,9.533004987053573,9.69008078519255,0,0,1761679172.52289
82.14129267679527,7.563947660382837,7.330203913152218,16.807110400870442,0,0,1761679172.52289
102.4003307367675,10.103339730296284,7.3040246134623885,9.761138884350657,0,0,1761679172.52289
100.28354736184701,11.801254310179502,7.734113108366728,12.532404751516879,0,0,1761679172.52289
209.23805277096108,14.250888781156391,8.773805296048522,14.652928026393056,0,0,1761679172.52289
-46.9675335935317,15.324240068439394,7.883709106594324,11.223439767025411,0,0,1761679172.52289
-30.942062283400446,9.168364741373807,6.211973826400936,13.332743342034519,0,0,1761679172.52289
96.2481953096576,11.277668316382915,9.140315491706133,13.508518639951944,0,0,1761679172.52289
104.19922261545435,7.03288186667487,9.450727188028395,11.747025760821998,0,0,1761679172.52289
120.39672932354733,10.346433227416128,10.426841076463461,13.370142341591418,0,0,1761679172.52289
117.35619065957144,10.974736419972032,11.537591363303363,14.032104633748531,0,0,1761679172.52289
113.94166200002655,10.327733727637678,10.337083477526903,9.768618684262037,0,0,1761679172.52289
-41.862570154014975,10.884978821035475,6.956213917583227,10.385702176950872,0,0,1761679172.52289
42.625509744975716,9.190804141107947,12.431427452713251,10.48293957579881,0,0,1761679172.52289
82.44796447316185,10.929857620503753,9.708780284970999,8.05948440451175,0,0,1761679172.52289
111.54438612842932,11.311327415984124,9.604063086211681,12.005078857764602,0,0,1761679172.52289
244.93165794806555,10.178137729410082,6.4475875236094,11.765725260600448,0,0,1761679172.52289
-73.88359357463196,16.588326253462583,3.377129659987986,12.109796056523919,0,0,1761679172.52289
-25.724901845213026,11.722716411110014,7.0609311163425446,12.154674855992198,0,0,1761679172.52289
71.66583290090784,14.632358576636761,7.550858010537922,11.810604060068727,0,0,1761679172.52289
92.55317415343598,11.214090017136186,8.268918802030385,9.432027688249946,0,0,1761679172.52289
100.52290095901117,8.517622149083763,7.476060011424124,16.04791070986539,0,0,1761679172.52289
180.30244681378826,13.630065388511866,6.907595218159258,8.979499793611467,0,0,1761679172.52289
10.563347424846143,10.66806462360546,3.2088341619819403,11.193520567379892,0,0,1761679172.52289
34.43512884201482,12.624032300431281,4.506579446606338,10.546517875045538,0,0,1761679172.52289
93.07676014723256,15.099846071098,7.3863024124875665,13.886248535476625,0,0,1761679172.52289
115.79665237804875,8.177291253115982,3.900715653784573,11.055144269019365,0,0,1761679172.52289
160.37999974982813,11.760115410666913,5.1311427392065525,11.70588686130941,0,0,1761679172.52289
249.25498229684308,12.65021160012111,4.117629851214588,9.476906487718225,0,0,1761679172.52289
-209.20439367135987,13.622585588600487,8.160461703315377,10.789611372165382,0,0,1761679172.52289
6.916944968048483,11.696537111420184,6.7430396201089025,7.23296651430428,0,0,1761679172.52289
76.34070784552023,10.151958429720253,6.888895718380809,13.501038840040565,0,0,1761679172.52289
103.22310872701928,13.618845688644797,9.503085787408054,15.251312019303441,0,0,1761679172.52289
165.18203129293397,12.64273180020973,6.514905722811818,14.08446323312819,0,0,1761679172.52289
38.683655191678554,12.624032300431281,6.653282021172345,14.06576373334974,0,0,1761679172.52289
64.52636388549581,7.870619456749409,6.675721420906484,12.674520949833095,0,0,1761679172.52289
96.60348580544814,12.70257019950077,7.203047314658761,12.352889553643763,0,0,1761679172.52289
66.81892255833372,10.795221222098917,6.507425922900438,13.979746034368873,0,0,1761679172.52289
67.33502875221893,11.154251617845148,10.396921876817942,15.139115020632744,0,0,1761679172.52289
18.26380143361166,14.004055384080857,7.801431307569146,13.759091936983168,0,0,1761679172.52289
61.82989601744339,14.28080798080191,4.00917275249958,11.425394364632666,0,0,1761679172.52289
102.49382823565975,11.277668316382915,9.432027688249946,11.963939958252013,0,0,1761679172.52289
103.39514412498102,13.416891091037542,3.896975753828883,12.016298557631671,0,0,1761679172.52289
109.68191595049575,11.617999212350696,9.64894188567996,7.962247005663812,0,0,1761679172.52289
23.10697187623009,14.572520177345723,7.22922661434859,11.818083859980106,0,0,1761679172.52289
34.31171214347705,12.582893400918692,7.012312416918576,7.1020700158551335,0,0,1761679172.52289
52.708280025515705,13.603886088822037,8.47087339963764,10.348303177393973,0,0,1761679172.52289
80.67899179412052,11.950850308407098,3.3285109605640173,13.029811445623636,0,0,1761679172.52289
154.1979451230727,12.818507098127156,7.2666256139054894,12.85403614770621,0,0,1761679172.52289
146.05992281949148,12.358499403577298,7.434921111911535,14.664147726260126,0,0,1761679172.52289
48.81504417164251,11.023355119396001,2.853543666191399,9.835936883464456,0,0,1761679172.52289
-2.818014616612345,8.64103884762153,7.008572516962886,9.144055391661823,0,0,1761679172.52289
46.12605610350147,10.185617529321462,3.3920892598107457,9.099176592193544,0,0,1761679172.52289
104.68166970973834,7.762162358034402,6.552304722368717,13.557137339375913,0,0,1761679172.52289
123.41856848774478,12.605332800652832,6.275552125647664,11.201000367291272,0,0,1761679172.52289
68.0530895437114,10.963516720104963,7.356383212842047,8.538191598840058,0,0,1761679172.52289
71.5723354020156,10.432450926396996,6.571004222147167,10.677414373494685,0,0,1761679172.52289
110.44485554145649,8.775675246026367,6.608403221704066,17.973959187045693,0,0,1761679172.52289
78.83896101592109,13.962916484568268,10.116429380141199,14.263978431001306,0,0,1761679172.52289
198.8934894935228,10.989696019794792,8.942100794054568,11.993859157897532,0,0,1761679172.52289
59.29798374744132,13.271034992765635,6.4588072234764695,13.302824142389,0,0,1761679172.52289
-22.860138479154557,12.762408598791808,5.321877636946738,14.795044224709272,0,0,1761679172.52289
90.88143887324259,11.947110408451408,6.526125422678888,10.314644077792764,0,0,1761679172.52289
167.92711786041036,14.579999977257103,2.857283566147089,12.581023450940847,0,0,1761679172.52289
179.90975731844082,13.90681798523292,6.279292025603354,17.850542488507926,0,0,1761679172.52289
9.658291635569185,13.289734492544085,7.135729115456343,8.384855700656772,0,0,1761679172.52289
51.81818383606151,12.317360504064709,15.329849918372929,7.603216609917581,0,0,1761679172.52289
92.33999985596165,17.725255839992315,7.63687570951879,11.500192363746464,0,0,1761679172.52289
100.61265855794773,12.205163505394012,5.677168132737279,9.446987288072705,0,0,1761679172.52289
208.419014680665,13.600146188866347,9.888295482844114,16.95296649914235,0,0,1761679172.52289
163.64119251118973,11.909711408894509,2.457114270888269,13.055990745313466,0,0,1761679172.52289
-18.981862225104123,12.530534801539034,8.4484339999035,14.1181223327294,0,0,1761679172.52289
56.26118498342112,12.833466697949916,13.347702941857278,13.175667543895543,0,0,1761679172.52289
96.57730650575832,10.510988825466484,5.348056936636567,15.636521714739501,0,0,1761679172.52289
112.80473241349682,10.088380130473524,11.904101558960974,11.975159658119082,0,0,1761679172.52289
141.47106557385996,13.042901095468551,5.389195836149156,10.269765278324485,0,0,1761679172.52289
129.7427393128164,12.24256250495091,13.998445534147322,12.921354346908629,0,0,1761679172.52289
155.92203900264576,15.140984970610589,10.337083477526903,14.626748726703227,0,0,1761679172.52289
83.79058855725452,12.926964196842164,10.142608679831028,15.385948417708278,0,0,1761679172.52289
82.65365897072479,14.516421678010374,13.347702941857278,12.794197748415172,0,0,1761679172.52289
173.9483567890711,9.957483632024378,3.579084257595241,9.319830689579248,0,0,1761679172.52289
28.122177716810256,10.750342422630638,6.088557127863169,17.409234293736517,0,0,1761679172.52289
111.75756042590365,12.26126200472936,7.700454008765519,6.9823932172730565,0,0,1761679172.52289
60.07588293822482,12.216383205261081,7.951027305796742,11.601169662550092,0,0,1761679172.52289
178.34647913696244,12.953143496531993,7.8276106072589755,11.937760658562183,0,0,1761679172.52289
116.57829146878794,10.65684492373839,5.9352212296798825,14.207879931665957,0,0,1761679172.52289
38.657475891988724,13.196236993651837,7.722893408499658,12.293051154352725,0,0,1761679172.52289
151.41545955603942,6.991742967162281,8.261439002119005,14.177960732020438,0,0,1761679172.52289
134.2306192596443,13.042901095468551,9.592843386344612,15.70383991394192,0,0,1761679172.52289
37.797298902180046,12.728749499190599,5.965140429325402,12.218253155238926,0,0,1761679172.52289
68.87586753396317,14.082593283150345,2.8311042664572597,12.581023450940847,0,0,1761679172.52289
122.93238149350509,10.582046924624592,8.03704500477761,15.505625216290355,0,0,1761679172.52289
126.69098094897345,11.692797211464494,7.606956509873271,13.093389744870365,0,0,1761679172.52289
160.18552495213225,14.501462078187615,9.622762585990131,8.680307797156274,0,0,1761679172.52289
86.44965742575005,11.326287015806884,10.03415158111602,14.843662924133241,0,0,1761679172.52289
114.95891478797421,13.11395919462666,4.652435544878244,12.285571354441345,0,0,1761679172.52289
110.88242383627221,11.595559812616557,4.098930351436138,13.100869544781744,0,0,1761679172.52289
141.11577507806942,12.384678703267127,9.428287788294256,13.26916504278779,0,0,1761679172.52289
262.01926084561273,13.921777585055679,5.2508195377886295,9.25251249037683,0,0,1761679172.52289
-76.04525574902073,9.389018838759512,3.6875413563102484,16.249865307472646,0,0,1761679172.52289
79.63181980652735,8.394205450545996,8.224040002562106,13.602016138844192,0,0,1761679172.52289
99.92077706614509,13.663724488113075,7.221746814437211,13.512258539907634,0,0,1761679172.52289
148.7152517880313,12.990542496088892,6.810357819311321,10.88684877101332,0,0,1761679172.52289
228.11332784732804,8.439084250014275,6.013759128749371,7.8687495067715645,0,0,1761679172.52289
-57.177460472565144,12.489395902026445,6.754259319975972,11.28701806627214,0,0,1761679172.52289
88.80579439783469,10.166918029543012,9.218853390775621,12.293051154352725,0,0,1761679172.52289
112.16520952107385,12.351019603665918,7.928587906062603,10.610096174292266,0,0,1761679172.52289
115.53111948119476,10.63066562404856,9.64894188567996,11.69092726148665,0,0,1761679172.52289
165.73927638633177,12.321100404020399,8.515752199105918,14.89976142346859,0,0,1761679172.52289
112.00439382297918,11.191650617402047,9.155275091528893,11.840523259714246,0,0,1761679172.52289
46.705740596633404,9.116006141994148,8.03704500477761,12.741839149035513,0,0,1761679172.52289
137.5666100201197,12.059307407122105,9.316090789623559,12.139715256169438,0,0,1761679172.52289
68.66269323648885,14.942770272959024,2.2701192731037736,11.167341267690063,0,0,1761679172.52289
74.04814917268232,13.413151191081852,9.723739884793758,12.218253155238926,0,0,1761679172.52289
131.50797209190205,12.081746806856245,7.696714108809829,6.989873017184436,0,0,1761679172.52289
254.0607537399046,8.62233934784308,6.092297027818859,10.355782977305353,0,0,1761679172.52289
-12.201423605438322,7.515328960958868,7.393782212398946,12.023778357543051,0,0,1761679172.52289
55.80865708878264,8.996329343412071,6.182054626755416,13.343963041901588,0,0,1761679172.52289
106.08787209307775,12.496875701937824,6.559784522280097,14.49211232829839,0,0,1761679172.52289
102.587325734552,14.153651382308453,1.8400307781994343,11.922801058739424,0,0,1761679172.52289
109.11345115723088,12.339799903798848,5.422854935750365,11.107502868399024,0,0,1761679172.52289
132.21855308348313,12.530534801539034,3.8782762540504336,11.6722277617082,0,0,1761679172.52289
115.33664468349889,11.48336281394586,3.896975753828883,9.327310489490628,0,0,1761679172.52289
70.55508261406794,13.47298959037289,8.635428997687995,12.375328953377903,0,0,1761679172.52289
103.88881091913208,8.756975746247917,6.683201220817864,14.121862232685089,0,0,1761679172.52289
133.58361656730995,11.763855310622603,4.652435544878244,13.523478239774704,0,0,1761679172.52289
133.06003057351336,13.588926488999277,10.512858775444329,12.09857635665685,0,0,1761679172.52289
78.40513262106106,8.816814145538956,6.604663321748376,14.211619831621647,0,0,1761679172.52289
106.18884939188138,9.88268563291058,6.511165822856128,8.287618301808834,0,0,1761679172.52289
42.8910426418297,11.371165815275162,9.024378593079746,14.985779122449458,0,0,1761679172.52289
89.03766819508746,13.263555192854255,6.757999219931662,12.135975356213748,0,0,1761679172.52289
182.30703319003806,11.43848401447758,10.43058097641915,14.424794129095972,0,0,1761679172.52289
129.83249691175297,9.89016543282196,7.782731807790697,13.998445534147322,0,0,1761679172.52289
14.048934183549136,14.217229681555182,7.083370516076684,6.638322421349585,0,0,1761679172.52289
83.80554815707728,10.402531726751477,1.8662100778892636,9.159014991484582,0,0,1761679172.52289
98.60433228174224,12.523055001627654,6.563524422235787,11.982639458030462,0,0,1761679172.52289
149.91949957376346,9.194544041063637,2.176621774211526,13.463639840483665,0,0,1761679172.52289
169.78584813838825,12.433297402691096,2.584270869381726,12.04621775727719,0,0,1761679172.52289
-23.761454368475825,8.872912644874305,4.962847241200507,12.782978048548102,0,0,1761679172.52289
80.19280479988083,16.70426315208897,3.62396305706352,12.569803751073778,0,0,1761679172.52289
65.25938427681103,8.106233153957874,11.956460158340633,12.85403614770621,0,0,1761679172.52289
80.0955674010329,11.128072318155318,11.028964969329536,15.27375141903758,0,0,1761679172.52289
100.01801446499303,13.196236993651837,5.041385140269995,10.004232381470501,0,0,1761679172.52289
68.59163513733074,9.598453236278147,12.682000749744475,14.316337030380964,0,0,1761679172.52289
132.5252248798497,13.783401286695153,5.946440929546952,10.550257775001228,0,0,1761679172.52289
135.79389744112268,11.629218912217766,7.206787214614451,11.948980358429253,0,0,1761679172.52289
52.96633312245831,11.88727200916037,5.879122730344534,6.585963821969926,0,0,1761679172.52289
90.58972667669877,13.443070390727371,9.66390148550272,10.89058867096901,0,0,1761679172.52289
46.855336594861,11.333766815718263,1.1144901867955923,10.47919967584312,0,0,1761679172.52289
127.18464774312451,13.824540186207741,10.86440937127918,13.156968044117093,0,0,1761679172.52289
204.9670870215632,13.551527489442378,6.918814918026328,10.527818375267088,0,0,1761679172.52289
-53.62455551465973,16.25921505736187,7.715413608588278,14.720246225595474,0,0,1761679172.52289
107.01536728208885,11.012135419528931,5.692127732560039,11.058884168975055,0,0,1761679172.52289
115.77421297831461,7.86313965683803,9.357229689136147,13.815190436318517,0,0,1761679172.52289
88.79831459792331,9.579753736499697,7.3863024124875665,11.328156965784729,0,0,1761679172.52289
138.89053460443392,10.855059621389955,6.567264322191477,17.009064998477697,0,0,1761679172.52289
105.98315489431843,9.650811835657805,8.05574450455606,16.212466307915747,0,0,1761679172.52289
41.54467865778133,16.3227933566086,8.138022303581238,11.541331263259053,0,0,1761679172.52289
-24.068126164842397,12.638991900254041,6.754259319975972,12.88021544739604,0,0,1761679172.52289
107.20236227987334,14.209749881643802,7.898668706417084,12.49126585200429,0,0,1761679172.52289
108.52254696423188,15.335459768306464,7.158168515190482,11.941500558517873,0,0,1761679172.52289
113.79580590175465,12.713789899367839,1.8774297777563334,14.07698343321681,0,0,1761679172.52289
78.28545582247898,9.332920339424163,3.784778755158186,16.55279720388353,0,0,1761679172.52289
86.18038462894037,7.922978056129068,9.200153890997171,15.011958422139287,0,0,1761679172.52289
16.74914195155725,12.444517102558166,2.894682565703988,10.991565969772637,0,0,1761679172.52289
56.20134658413008,13.585186589043587,2.5580915696918964,8.519492099061608,0,0,1761679172.52289
86.1355058294721,11.322547115851194,5.190981138497591,12.09109655674547,0,0,1761679172.52289
111.05071933427826,11.812474010046571,4.155028850771487,11.64230856206268,0,0,1761679172.52289
103.67563662165776,9.035598292946815,0.7143208915367723,10.808310871943831,0,1,1761679183.550454
126.73211984848604,14.346256230026484,6.9001154182478786,10.924247770570219,0,1,1761679183.550454
55.37482869392261,12.10231625661254,8.526971898972988,10.606356274336576,0,1,1761679183.550454
103.5148209235631,12.270611754618585,6.911335118114948,11.488972663879395,0,1,1761679183.550454
96.86527880234644,14.970819522626698,4.0428318521007895,9.948133882135153,0,1,1761679183.550454
140.84650228125975,11.597429762594402,11.043924569152296,11.043924569152296,0,1,1761679183.550454
5.783755281474441,16.227425907738507,9.566664086654782,15.344809518195689,0,1,1761679183.550454
91.3190071680583,12.573543651029468,5.553751434199512,10.90180837083608,0,1,1761679183.550454
83.15854546474293,10.09025008045137,7.517198910936713,12.771758348681033,0,1,1761679183.550454
84.62458624737337,13.242985743097961,8.130542503669858,10.726033072918653,0,1,1761679183.550454
72.60080788983032,10.651235073804855,9.368449389003217,13.923647535033524,0,1,1761679183.550454
84.86019994458184,10.613836074247956,7.195567514747381,17.181100396439433,0,1,1761679183.550454
142.96328565618023,11.530111563391984,5.3742362363263965,14.383655229583383,0,1,1761679183.550454
161.23269693972543,9.65268178563565,6.630842621438205,14.720246225595474,0,1,1761679183.550454
127.03131184494123,6.8215775191783905,4.783332043327391,8.814944195561111,0,1,1761679183.550454
68.24382444145158,11.432874164544046,6.230673326179385,10.86066947132349,0,1,1761679183.550454
46.48882639920339,14.656667926348746,5.460253935307264,15.101716021075845,0,1,1761679183.550454
79.19051161175594,10.85318967141211,2.5655713696032763,10.610096174292266,0,1,1761679183.550454
122.72294709598646,11.25709886662662,9.787318184040487,18.89023467618972,0,1,1761679183.550454
102.2170756389387,12.719399749301374,8.339976901188493,12.199553655460477,0,1,1761679183.550454
101.41673704842106,14.020884933881462,7.550858010537922,16.679953802376986,0,1,1761679183.550454
50.99540584580973,11.533851463347673,10.501639075577259,11.975159658119082,0,1,1761679183.550454
120.41542882332578,8.115582903847098,10.49415927566588,15.27749131899327,0,1,1761679183.550454
135.24039224768057,12.326710253953934,7.124509415589273,14.51829162798822,0,1,1761679183.550454
74.7587301642634,13.886248535476625,8.250219302251935,15.774898013100028,0,1,1761679183.550454
132.1886338838376,10.131388979963958,3.459407459013164,15.146594820544124,0,1,1761679183.550454
70.940292309504,15.045617521740496,7.775252007879317,12.405248153023422,0,1,1761679183.550454
153.4574449318461,12.435167352668941,8.583070398308337,6.301731425337493,0,1,1761679183.550454
162.51922252448276,13.463639840483665,7.442400911822915,13.796490936540067,0,1,1761679183.550454
4.953497491311282,10.909288170747459,9.66016158554703,12.689480549655855,0,1,1761679183.550454
114.21093479683623,14.652928026393056,9.66016158554703,10.520338575355709,0,1,1761679183.550454
-5.499522884842008,12.221993055194616,8.972019993700087,12.652081550098956,0,1,1761679183.550454
121.06243151566014,14.163001132197678,7.846310107037425,12.932574046775699,0,1,1761679183.550454
85.73907643416896,11.952720258384943,6.589703721925616,13.388841841369867,0,1,1761679183.550454
111.05071933427826,10.206186979077756,4.061531351879239,12.588503250852227,0,1,1761679183.550454
94.96914952481166,13.018591745756567,9.301131189800799,14.07324353326112,0,1,1761679183.550454
132.8580759759061,11.945240458473563,12.760538648813963,16.721092701889575,0,1,1761679183.550454
83.22960356390104,12.248172354884446,7.199307414703071,13.400061541236937,0,1,1761679183.550454
80.11426690081134,7.951027305796742,5.62480953335762,12.248172354884446,0,1,1761679183.550454
81.32973438641056,10.755952272564173,1.4174220832064748,13.901208135299385,0,1,1761679183.550454
150.95171196153387,9.955613682046533,10.05285108089447,11.036444769240916,0,1,1761679183.550454
63.565209596883506,12.034998057410121,4.44300114735961,9.110396292060614,0,1,1761679183.550454
66.34021536400542,9.828457083553076,3.2873720610514283,13.085909944958985,0,1,1761679183.550454
116.8139051659964,10.153828379698098,9.375929188914597,11.556290863081813,0,1,1761679183.550454
93.14407834643498,13.815190436318517,3.5977837573736906,12.84655634779483,0,1,1761679183.550454
70.82435541087762,12.91387454699725,10.46050017606467,16.425640605390072,0,1,1761679183.550454
105.76624069688842,12.394028453156352,6.810357819311321,13.486079240217805,0,1,1761679183.550454
125.39323566434905,12.539884551428258,6.204494026489556,15.561723715625703,0,1,1761679183.550454
75.1663792594336,12.842816447839141,7.019792216829956,12.936313946731389,0,1,1761679183.550454
101.55137344682589,13.766571736894548,8.541931498795748,9.802277783863246,0,1,1761679183.550454
97.34024609671906,13.411281241104007,9.566664086654782,12.90265484713018,0,1,1761679183.550454
78.01244312571362,12.09483645670116,6.716860320419073,13.542177739553154,0,1,1761679183.550454
118.46694094641134,15.857175812125206,4.43926124740392,10.913028070703149,0,1,1761679183.550454
142.08066926663741,7.016052316874266,4.652435544878244,18.781777577474713,0,1,1761679183.550454
71.62843390135095,17.36435549426824,11.141161968000233,10.43058097641915,0,1,1761679183.550454
107.99896097043529,11.818083859980106,11.014005369506776,17.35313579440117,0,1,1761679183.550454
110.61315103946254,8.152981903403997,-1.1892881859093904,10.131388979963958,0,1,1761679183.550454
145.05762963136658,10.707333573140204,6.185794526711106,9.050557892769575,0,1,1761679183.550454
47.61827618582174,10.920507870614529,4.84691034257412,7.1020700158551335,0,1,1761679183.550454
104.75646770885214,12.4875259520486,7.042231616564095,11.208480167202652,0,1,1761679183.550454
135.28153114719316,13.631935338489711,5.254559437744319,10.206186979077756,0,1,1761679183.550454
5.058214690070599,13.953566734679043,11.447833764366806,11.627348962239921,0,1,1761679183.550454
131.4556134925224,15.251312019303441,13.818930336274207,17.117522097192705,0,1,1761679183.550454
64.12619459023699,13.803970736451447,8.48209309950471,11.627348962239921,0,1,1761679183.550454
103.59709872258827,10.44180067628622,8.302577901631594,13.100869544781744,0,1,1761679183.550454
101.81690634367988,10.325863777659833,6.526125422678888,9.379669088870287,0,1,1761679183.550454
115.85649077733979,12.539884551428258,5.389195836149156,14.982039222493768,0,1,1761679183.550454
62.357221911195666,11.915321258828044,6.8215775191783905,15.329849918372929,0,1,1761679183.550454
119.47671393444762,10.553997674956918,9.461946887895465,13.070950345136225,0,1,1761679183.550454
45.16864171484485,14.765125025063753,6.185794526711106,14.391135029494762,0,1,1761679183.550454
90.53362817736343,9.383408988825977,2.9171219654381275,15.28123121894896,0,1,1761679183.550454
83.08000756567344,12.274351654574275,3.377129659987986,17.053943797945976,0,1,1761679183.550454
133.81175046460703,13.755352037027478,13.889988435432315,13.957306634634733,0,1,1761679183.550454
125.39323566434905,11.821823759935796,7.195567514747381,13.987225834280252,0,1,1761679183.550454
28.866417807992548,11.073843768797815,5.3330973368138075,10.677414373494685,0,1,1761679183.550454
6.868326268624514,3.7174605559557676,4.618776445277035,14.09194303303957,0,1,1761679183.550454
55.68524039024487,5.478953435085714,5.24333973787725,9.061777592636645,0,1,1761679183.550454
74.97564436169341,5.340577136725187,7.3451635129749775,10.266025378368795,0,1,1761679183.550454
-79.19425151171163,2.0681646754965186,9.585363586433232,9.439507488161325,0,1,1761679183.550454
-12.915744496975094,0.1084570987150073,4.349503648467362,12.532404751516879,0,1,1761679183.550454
4.018522502388805,2.1541823744773865,4.349503648467362,13.998445534147322,0,1,1761679183.550454
12.175244305748492,7.412481712177396,12.322970353998244,15.105455921031535,0,1,1761679183.550454
71.40777980396524,-3.0480184638872743,-1.2790457848459482,6.2568526258692145,0,1,1761679183.550454
-57.79454396525398,0.9162754891440272,3.4706271588802338,11.193520567379892,0,1,1761679183.550454
5.682777982670814,5.422854935750365,6.623362821526825,8.612989597953856,0,1,1761679183.550454
9.770488634239882,6.937514417804778,5.6547287330031395,9.873335883021355,0,1,1761679183.550454
58.85293565271422,4.349503648467362,0.8489572899416089,12.562323951162398,0,1,1761679183.550454
-10.458630226086825,1.1518891863524914,2.329957672394812,12.816637148149312,0,1,1761679183.550454
-46.15597530314699,5.437814535573125,0.40390919521450996,13.059730645269156,0,1,1761679183.550454
-6.180184676777571,3.575344357639551,0.11967679858207703,16.46303960494697,0,1,1761679183.550454
4.702924194280058,7.775252007879317,-4.222347049973905,11.848003059625626,0,1,1761679183.550454
66.02606376772746,4.772112343460321,4.626256245188415,10.415621376596391,0,1,1761679183.550454
1.2584763350896537,5.303178137168288,3.7997383549809456,11.477752964012325,0,1,1761679183.550454
-25.014320853631943,4.274705649353564,5.8940823301672935,6.354090024717152,0,1,1761679183.550454
19.610165417660028,3.134036162868142,4.667395144701004,11.178560967557132,0,1,1761679183.550454
8.828033845406026,7.438661011867225,4.903008841909468,13.385101941414177,0,1,1761679183.550454
-15.615952264983207,3.384609459899366,3.130296262912452,10.09398998040706,0,1,1761679183.550454
-59.911327340174466,6.402708724141121,-2.41971527133137,14.009665234014392,0,1,1761679183.550454
-2.343047322239727,7.315244313329458,3.896975753828883,12.423947652801871,0,1,1761679183.550454
47.02363209286705,4.274705649353564,2.6328895688056946,12.07613695692271,0,1,1761679183.550454
12.889565197285265,4.757152743637562,6.354090024717152,10.138868779875338,0,1,1761679183.550454
34.47626774152741,4.723493644036353,8.212820302695036,11.107502868399024,0,1,1761679183.550454
67.41730655124411,5.407895335927606,1.4697806825861335,11.421654464676976,0,1,1761679183.550454
-95.41419761953875,1.2977452846243978,6.342870324850082,9.495605987496674,0,1,1761679183.550454
8.951450543943793,6.993612917140126,6.163355126976967,13.30656404234469,0,1,1761679183.550454
22.890057678800076,2.745086567476392,8.512012299150229,8.216560202650726,0,1,1761679183.550454
35.21676793275401,4.558938045985997,7.543378210626543,15.782377813011408,0,1,1761679183.550454
-11.644178512040526,1.4959599822759628,3.3172912606969476,12.349149653688073,0,1,1761679183.550454
-49.36854936508462,2.4271950712427497,6.537345122545958,10.999045769684017,0,1,1761679183.550454
12.6539515000768,3.777298955246806,7.281585213728249,12.719399749301374,0,1,1761679183.550454
21.453936095815152,3.900715653784573,6.0960369277745485,12.50996535178274,0,1,1761679183.550454
39.73082717927173,3.21257406193763,7.681754508987069,14.252758731134236,0,1,1761679183.550454
9.635852235835046,3.739899955689907,3.6800615563988686,16.399461305700243,0,1,1761679183.550454
19.617645217571408,7.2628857139497995,2.094343975186348,12.738099249079823,0,1,1761679183.550454
22.258014586288482,5.781885331496596,3.2761523611843586,7.921108106151223,0,1,1761679183.550454
-59.82156974123791,2.8797229658812284,4.921708341687918,11.126202368177474,0,1,1761679183.550454
-40.53864556970075,4.03535205218941,3.4519276591017842,11.309457466006279,0,1,1761679183.550454
-0.2786225466988981,6.638322421349585,4.151288950815797,7.722893408499658,0,1,1761679183.550454
49.27131196623668,2.730126967653632,6.477506723254919,11.915321258828044,0,1,1761679183.550454
45.531412010546774,1.1369295865297318,3.6875413563102484,15.913274311460555,0,1,1761679183.550454
24.071866064798087,3.0816775634884834,4.43178144749254,11.627348962239921,0,1,1761679183.550454
-52.40534812910482,3.5229857582598925,4.555198146030307,11.799384360201657,0,1,1761679183.550454
-4.572027695830911,1.8699499778449535,9.398368588648736,7.109549815766513,0,1,1761679183.550454
28.604624811094254,1.2304270854219794,1.7166140796616673,12.824116948060691,0,1,1761679183.550454
84.34409375069663,10.299684477970004,5.2096806382760406,17.218499395996332,0,1,1761679183.550454
-98.29766048537567,8.639168897643685,2.5169526701793075,15.535544415935874,0,1,1761679183.550454
-33.48519425326958,3.096637163311243,-5.879122730344534,12.143455156125128,0,1,1761679183.550454
-19.18755672266707,2.9171219654381275,1.245386685244739,11.380515565164387,0,1,1761679183.550454
56.56785677978769,5.116183139383793,5.931481329724193,14.555690627545118,0,1,1761679183.550454
-2.492643320467323,5.015205840580165,6.683201220817864,13.205586743541062,0,1,1761679183.550454
-14.826833374332637,-0.14585609827190638,5.449034235440195,13.130788744427264,0,1,1761679183.550454
-37.1839553094469,6.372789524495602,2.4047556715086102,12.192073855549097,0,1,1761679183.550454
20.088872611988336,7.913628306239843,2.490773370489478,11.462793364189565,0,1,1761679183.550454
0.6526125422678888,5.086263939738274,2.6328895688056946,13.755352037027478,0,1,1761679183.550454
35.826371625531465,5.0114659406244755,1.4323816830292344,11.021485169418156,0,1,1761679183.550454
65.53613687353209,2.778745667077601,3.22005386184901,7.401262012310326,0,1,1761679183.550454
-40.07115807523951,4.712273944169283,9.117876091971993,11.343116565607488,0,1,1761679183.550454
-15.10732587100938,1.1331896865740418,6.866456318646669,13.530958039686084,0,1,1761679183.550454
-36.54443241702393,5.134882639162242,3.3509503602981567,16.754751801490784,0,1,1761679183.550454
6.023108878638595,3.822177754715085,6.522385522723198,17.880461688153446,0,1,1761679183.550454
21.50629469519481,6.283031925559044,4.2036475501954556,13.127048844471574,0,1,1761679183.550454
-30.34367829049006,3.534205458126962,3.21631396189332,12.240692554973066,0,1,1761679183.550454
92.42975745489821,1.4323816830292344,4.4056021478027105,11.058884168975055,0,1,1761679183.550454
-17.44476334331557,4.177468250505626,1.2790457848459482,12.588503250852227,0,1,1761679183.550454
-11.46466331416741,5.598630233667791,3.4107887595891953,11.047664469107985,0,1,1761679183.550454
8.368026150856167,1.4959599822759628,0.39268949534744024,11.264578666538,0,1,1761679183.550454
54.331396606285125,4.450480947270989,-1.0733512872830033,11.724586361087859,0,1,1761679183.550454
7.496629461180419,6.294251625426114,5.0900038396939635,14.039584433659911,0,1,1761679183.550454
-90.59720647661015,6.02871872857213,2.169141974300146,14.630488626658916,0,1,1761679183.550454
-0.5815544431097806,1.6044170809909701,2.8872027657926083,14.1181223327294,0,1,1761679183.550454
-4.601946895476431,1.694174679927528,2.861023466102779,11.391735265031457,0,1,1761679183.550454
16.34523275634274,5.060084640048444,2.180361674167216,10.909288170747459,0,1,1761679183.550454
54.18928040796891,4.517799146473408,7.027272016741335,12.981192746199667,0,1,1761679183.550454
-21.341739097144455,8.111843003891408,3.537945358082652,12.771758348681033,0,1,1761679183.550454
7.750942658167332,8.06696420442313,4.472920347005129,10.84944977145642,0,1,1761679183.550454
26.267187338788062,6.9001154182478786,2.490773370489478,12.337929953821003,0,1,1761679183.550454
2.3206079225055873,6.253112725913525,3.4781069587916136,14.802524024620652,0,1,1761679183.550454
-5.8361138808541,7.24792611412704,2.7263870676979423,11.788164660334587,0,1,1761679183.550454
27.269480526912957,4.110150051303208,1.4286417830735445,12.532404751516879,0,1,1761679183.550454
-20.406764108221978,3.9568141531199217,-2.5244324700906873,6.331650624983013,0,1,1761679183.550454
5.787495181430131,5.254559437744319,2.4047556715086102,13.770311636850238,0,1,1761679183.550454
25.52668714756146,2.3486571721732616,9.084216992370784,14.436013828963041,0,1,1761679183.550454
26.629957634489983,3.463147358968854,8.84860329516232,11.915321258828044,0,1,1761679183.550454
8.469003449659795,5.4939130349084735,13.856329335831106,13.497298940084875,0,1,1761679183.550454
4.766502493526787,1.9185686772689223,8.541931498795748,15.000738722272217,0,1,1761679183.550454
48.4859329755418,1.2229472855105996,3.4743670588359237,11.204740267246962,0,1,1761679183.550454
7.952897255774587,3.21257406193763,8.650388597510755,10.153828379698098,0,1,1761679183.550454
19.52414771867916,5.0526048401370645,5.299438237212598,11.967679858207703,0,1,1761679183.550454
-20.399284308310598,4.480400146916509,3.1489957626909018,13.68429393786937,0,1,1761679183.550454
67.83991524623707,6.657021921128035,5.355536736547947,6.892635618336499,0,1,1761679183.550454
-25.90067714313045,7.969726805575192,3.6015236573293805,9.409588288515806,0,1,1761679183.550454
-3.132166212890297,3.945594453252852,2.4832935705780983,10.288464778102934,0,1,1761679183.550454
-8.24086955236271,5.875382830388844,6.286771825514734,11.788164660334587,0,1,1761679183.550454
15.249442069325596,2.539392069913447,6.85149671882391,13.329003442078829,0,1,1761679183.550454
-2.8367141163907945,4.615036545321345,10.340823377482593,7.292804913595319,0,1,1761679183.550454
25.421969948802143,4.218607150018215,8.45217389985919,11.634828762151301,0,1,1761679183.550454
11.50580221368,0.4263485949486494,8.792504795826972,17.087602897547185,0,1,1761679183.550454
14.093812983017415,1.2827856848016381,5.075044239871204,7.120769515633583,0,1,1761679183.550454
-9.43763753818348,6.600923421792686,4.184948050417006,17.614928791299462,0,1,1761679183.550454
-0.9817237383686006,1.567018081434071,4.4467410473152995,10.396921876817942,0,1,1761679183.550454
23.836252367589623,3.422008459456265,5.759445931762457,15.004478622227907,0,1,1761679183.550454
23.002254677470773,5.879122730344534,8.732666396535933,10.800831072032452,0,1,1761679183.550454
35.811412025708705,7.438661011867225,3.9642939530313015,8.785024995915592,0,1,1761679183.550454
-13.08777989493683,1.2304270854219794,0.2094343975186348,16.87442860007286,0,1,1761679183.550454
53.19446701975539,1.1930280858650804,-0.2655328968539834,14.817483624443412,0,1,1761679183.550454
-55.565563591662794,3.264932661317289,8.212820302695036,9.102916492149234,0,1,1761679183.550454
68.61407453706488,3.3247710606083274,3.7324201557785273,14.593089627102017,0,1,1761679183.550454
-41.67557515623048,5.942701029591262,6.43636782374233,9.779838384129107,0,1,1761679183.550454
43.73999993177131,5.4116352358832955,5.527572134509683,13.171927643939853,0,1,1761679183.550454
-2.047595225740224,2.4346748711541295,1.006033088080585,11.316937265917659,0,1,1761679183.550454
21.420276996213943,0.3590303957462311,7.348903412930667,13.239245843142271,0,1,1761679183.550454
59.963685939554125,2.3449172722175717,1.8288110783323646,11.567510562948883,0,1,1761679183.550454
12.208903405349702,7.098330115899444,4.192427850328386,14.260238531045616,0,1,1761679183.550454
-33.791866049636155,5.598630233667791,6.978653317317367,10.243585978634655,0,1,1761679183.550454
0.521716043818742,4.798291643150151,3.1976144621148705,12.45386685244739,0,1,1761679183.550454
20.182370110880584,2.9545209649950266,0.35529049579054117,13.411281241104007,0,1,1761679183.550454
84.08604065375403,3.784778755158186,1.365063483826816,15.524324716068804,0,1,1761679183.550454
-37.2213543090038,8.508272399194539,4.558938045985997,13.564617139287293,0,1,1761679183.550454
25.784740244504064,5.146102339029312,5.280738737434149,9.761138884350657,0,1,1761679183.550454
85.62313953554258,13.602016138844192,6.43636782374233,12.852166197728366,0,1,1761679183.550454
73.97335117356852,14.742685625329614,6.567264322191477,11.43848401447758,0,1,1761679183.550454
107.0714657814242,10.165048079565167,8.691527497023344,8.042654854711145,0,1,1761679183.550454
103.26424762653187,14.278938030824065,9.338530189357698,16.191896858159453,0,1,1761679183.550454
87.13031921768561,10.187487479299307,7.719153508543968,15.025048071984202,0,1,1761679183.550454
90.75802217470482,6.630842621438205,7.019792216829956,12.429557502735406,0,1,1761679183.550454
150.09527487168089,15.251312019303441,7.7864717077463865,11.984509408008307,0,1,1761679183.550454
156.18383199954405,8.003385905176401,4.925448241643608,11.565640612971038,0,1,1761679183.550454
7.578907260205597,7.7453328082337976,5.781885331496596,12.29492110433057,0,1,1761679183.550454
96.79422070318833,12.90265484713018,5.8566833306103945,7.672404759097844,0,1,1761679183.550454
103.78783362032846,11.829303559847176,8.366156200878322,12.605332800652832,0,1,1761679183.550454
105.8859174954705,8.923401294276118,5.407895335927606,12.190203905571252,0,1,1761679183.550454
18.30868023307994,11.739545960910618,7.558337810449302,16.128318558912724,0,1,1761679183.550454
116.73162736697122,11.447833764366806,6.133435927331448,14.998868772294372,0,1,1761679183.550454
123.82247768295929,11.896621759049594,6.885155818425119,10.63814542395994,0,1,1761679183.550454
107.22480167960748,8.650388597510755,4.469180447049439,12.197683705482632,0,1,1761679183.550454
52.86909572361037,12.04995765723288,9.188934191130102,17.414844143670052,0,1,1761679183.550454
76.2771295462735,17.053943797945976,6.526125422678888,13.88811848545447,0,1,1761679183.550454
73.70407837675884,13.736652537249029,3.2013543620705605,9.576013836544007,0,1,1761679183.550454
127.57733723847196,14.574390127323568,7.842570207081735,14.022754883859307,0,1,1761679183.550454
108.83295866055414,12.805417448282242,6.391489024274051,12.343539803754538,0,1,1761679183.550454
105.30623300233856,11.769465160556138,7.62939590960741,13.925517485011369,0,1,1761679183.550454
40.71068096766248,14.413574429228902,7.715413608588278,5.765055781695992,0,1,1761679183.550454
92.81122725037858,13.545917639508843,6.189534426666796,10.619445924181491,0,1,1761679183.550454
107.9241629713215,12.020038457587361,3.302331660874188,12.021908407565206,0,1,1761679183.550454
163.4990763128735,10.913028070703149,10.658714873716235,13.278514792677015,0,1,1761679183.550454
6.527995372656733,9.121615991927683,5.808064631186426,13.009241995867342,0,1,1761679183.550454
95.61241231719032,11.111242768354714,12.756798748858273,16.539707554038614,0,1,1761679183.550454
101.87300484301522,9.23381299059838,6.765479019843042,9.47129663778469,0,1,1761679183.550454
58.325609758961946,12.08361675683409,4.2859253492206335,11.348726415541023,0,1,1761679183.550454
106.14771049236879,12.551104251295328,7.326464013196528,10.918637920636684,0,1,1761679183.550454
53.893828311469406,12.016298557631671,8.811204295605421,15.10358597105369,0,1,1761679183.550454
133.69581356598064,8.773805296048522,5.811804531142116,7.275975363794714,0,1,1761679183.550454
67.26023075310513,14.757645225152373,6.159615227021277,12.66891109989956,0,1,1761679183.550454
86.32624072721228,9.832196983508766,7.980946505442262,11.44596381438896,0,1,1761679183.550454
85.21923034032807,10.363262777216733,10.337083477526903,10.092120030429214,0,1,1761679183.550454
140.17706018919125,10.965386670082808,5.336837236769497,12.410858002956957,0,1,1761679183.550454
110.95722183538601,11.444093864411116,7.64435550943017,12.063047307077795,0,1,1761679183.550454
55.30751049472019,9.020638693124056,10.87188917119056,10.473589825909585,0,1,1761679183.550454
75.97419764986262,10.557737574912608,4.962847241200507,19.004301624838263,0,1,1761679183.550454
79.29896871047094,9.192674091085792,6.918814918026328,14.366825679782778,0,1,1761679183.550454
159.44502476090565,14.226579431444407,9.087956892326474,15.829126562457532,0,1,1761679183.550454
68.00073094433174,14.267718330956995,7.307764513418078,11.935890708584338,0,1,1761679183.550454
151.48277775524184,9.510565587319434,10.015452081337571,12.833466697949916,0,1,1761679183.550454
15.754328563343734,9.806017683818936,12.84655634779483,12.066787207033485,0,1,1761679183.550454
49.32741046557203,8.900961894541979,9.25251249037683,9.86398613313213,0,1,1761679183.550454
140.02372429100797,4.775852243416011,12.46508655231446,12.6539515000768,0,1,1761679183.550454
111.63414372736588,7.105809915810823,6.649542121216655,14.957729872781783,0,1,1761679183.550454
93.8396997381933,10.007972281426191,6.2194536263123155,15.05870717158541,0,1,1761679183.550454
148.24402439361438,13.534697939641774,8.4858329994604,13.244855693075806,0,1,1761679183.550454
128.4487339281477,13.366402441635728,5.449034235440195,10.944817220326513,0,1,1761679183.550454
45.452874111477286,11.212220067158341,-0.4899268941953778,10.585786824580282,0,1,1761679183.550454
61.48208532156423,14.005925334058702,7.090850315988064,12.227602905128151,0,1,1761679183.550454
136.115528837312,16.07035010959953,7.045971516519785,10.836360121611506,0,1,1761679183.550454
113.06652541039512,10.88684877101332,6.671981520950794,13.162577894050628,0,1,1761679183.550454
46.21955360239372,11.986379357986152,5.703347432427108,10.028541731182486,0,1,1761679183.550454
97.2130894982256,11.361816065385938,4.098930351436138,11.333766815718263,0,1,1761679183.550454
105.27631380269304,10.8943285709247,11.990119257941842,10.361392827238888,0,1,1761679183.550454
119.47297403449193,13.66185453813523,8.770065396092832,13.47672949032858,0,1,1761679183.550454
76.58380134264007,9.607802986167371,7.509719111025333,7.687364358920604,0,1,1761679183.550454
86.62917262362316,13.818930336274207,3.8446171544492245,10.428711026441306,0,1,1761679183.550454
74.03318957285956,13.351442841812968,9.465686787851155,8.25208925222978,0,1,1761679183.550454
102.80050003202632,9.66016158554703,9.409588288515806,13.338353191968054,0,1,1761679183.550454
105.60168509883806,13.411281241104007,11.724586361087859,15.316760268528014,0,1,1761679183.550454
152.08116174815223,10.583916874602437,8.762585596181452,8.64851864753291,0,1,1761679183.550454
107.15748348040506,9.619022686034441,7.823870707303286,13.540307789575309,0,1,1761679183.550454
118.81101174233481,14.585609827190638,11.043924569152296,11.341246615629643,0,1,1761679183.550454
36.54443241702393,8.669088097289205,10.359522877261043,9.516175437252969,0,1,1761679183.550454
57.74592526583001,8.553151198662817,9.933174282312393,11.348726415541023,0,1,1761679183.550454
70.88793371012434,8.84112349525094,9.005679093301296,11.240269316826016,0,1,1761679183.550454
117.92091555288061,12.06865715701133,9.806017683818936,12.721269699279219,0,1,1761679183.550454
65.15466707805172,12.955013446509838,5.321877636946738,13.05786069529131,0,1,1761679183.550454
85.80639463337138,12.618422450497746,9.899515182711184,14.378045379649848,0,1,1761679183.550454
